;content of MAPbI3.uxd - (Diffrac Plus V4 file)
_FILEVERSION = 3
_SAMPLE = MAPbI3
_+SAMPLE
_USER = Lab Manager
_GONIOMETER_CODE = 21
_STAGE_CODE = 0
; Goniometer : D8 theta/theta, stage : Standard
_SAMPLE_CHANGER_CODE = 0
_ATTACHMENTS_CODE = 0
_GONIOMETER_RADIUS = 250
_FIXED_DIVSLIT = 1
_MONOCHROMATOR = 0
; Incident beam monochromator : None
_BETA_FILTER = N
_FIXED_ANTISLIT = 18
_ANALYZER_CODE = 0
; Received beam analyzer : None
_DATEMEASURED = 28-Jul-2026 08:52:16
_RUNTIME = 1637.335
_WL_UNIT = A
_WL1 = 1.5406
_WL2 = 1.54439
_WL3 = 1.39222
_WLRATIO = 0.5
_ANODE = Cu
_V4_INF_USER = Lab Manager
_V4_INF_SAMPLEID = MAPbI3
_V4_INF_CREATOR = DatToUxdConverter
_V4_INF_CREATOR_VERSION = 1.0.0.0

; Data for range 1
_DRIVE = COUPLED
_STEPTIME = 1
_STEPSIZE = 0.019449999999999967
_STEPMODE = C
_START = 5.0001
_THETA = 2.50005
_2THETA = 5.0001
_DETECTORSLIT = out
_TIMESTARTED = 0
_KV = 40
_MA = 40
_RANGE_WL = 1.5406
_3DPLANE = 0
_V4_PSD2THETA = 9999
_V4_PSDCHANNEL1 = 0
_V4_PSDAPERTURE = 2.745898
_V4_PSDTYPE = 5
_V4_PSDFIXED = 0
_V4_COUNTERS_MASK = 1
_V4_DRIVES_MASK = 0
_V4_ENCODERS_MASK = 0
_2THETACOUNTS = 1
; 2THETA	Cnt2_D1	
5.000100	6319.000000	
5.019550	6186.000000	
5.039000	6120.000000	
5.058450	6098.000000	
5.077900	5985.000000	
5.097350	6109.000000	
5.116800	6023.000000	
5.136250	6195.000000	
5.155700	5986.000000	
5.175150	5977.000000	
5.194600	5982.000000	
5.214050	5948.000000	
5.233500	5917.000000	
5.252950	5835.000000	
5.272400	5817.000000	
5.291850	5700.000000	
5.311300	5652.000000	
5.330750	5834.000000	
5.350200	5691.000000	
5.369650	5847.000000	
5.389100	5635.000000	
5.408550	5710.000000	
5.428000	5558.000000	
5.447450	5745.000000	
5.466900	5519.000000	
5.486350	5560.000000	
5.505800	5677.000000	
5.525250	5560.000000	
5.544700	5526.000000	
5.564150	5485.000000	
5.583600	5514.000000	
5.603050	5532.000000	
5.622500	5554.000000	
5.641950	5412.000000	
5.661400	5425.000000	
5.680850	5470.000000	
5.700300	5331.000000	
5.719750	5301.000000	
5.739200	5460.000000	
5.758650	5245.000000	
5.778100	5260.000000	
5.797550	5175.000000	
5.817010	5251.000000	
5.836450	5158.000000	
5.855910	5181.000000	
5.875360	5244.000000	
5.894810	5334.000000	
5.914260	5293.000000	
5.933710	5173.000000	
5.953160	5155.000000	
5.972610	5185.000000	
5.992060	5170.000000	
6.011510	5177.000000	
6.030960	5098.000000	
6.050410	5111.000000	
6.069860	5061.000000	
6.089310	5086.000000	
6.108760	5059.000000	
6.128210	5034.000000	
6.147660	5047.000000	
6.167110	5014.000000	
6.186560	4938.000000	
6.206010	4920.000000	
6.225460	4975.000000	
6.244910	4940.000000	
6.264360	5010.000000	
6.283810	4809.000000	
6.303260	4881.000000	
6.322710	4887.000000	
6.342160	4926.000000	
6.361610	4877.000000	
6.381060	4832.000000	
6.400510	4816.000000	
6.419960	4772.000000	
6.439410	4841.000000	
6.458860	4796.000000	
6.478310	4748.000000	
6.497760	4824.000000	
6.517210	4832.000000	
6.536660	4812.000000	
6.556110	4771.000000	
6.575560	4841.000000	
6.595010	4725.000000	
6.614460	4820.000000	
6.633910	4710.000000	
6.653360	4719.000000	
6.672810	4774.000000	
6.692260	4747.000000	
6.711710	4788.000000	
6.731160	4768.000000	
6.750610	4584.000000	
6.770060	4718.000000	
6.789510	4711.000000	
6.808960	4611.000000	
6.828410	4771.000000	
6.847860	4660.000000	
6.867310	4650.000000	
6.886760	4654.000000	
6.906210	4701.000000	
6.925660	4546.000000	
6.945110	4640.000000	
6.964560	4590.000000	
6.984010	4637.000000	
7.003460	4632.000000	
7.022910	4467.000000	
7.042360	4440.000000	
7.061810	4563.000000	
7.081260	4548.000000	
7.100710	4672.000000	
7.120160	4671.000000	
7.139610	4584.000000	
7.159060	4550.000000	
7.178510	4500.000000	
7.197960	4629.000000	
7.217410	4561.000000	
7.236860	4459.000000	
7.256310	4514.000000	
7.275760	4478.000000	
7.295210	4442.000000	
7.314660	4544.000000	
7.334110	4554.000000	
7.353560	4568.000000	
7.373010	4444.000000	
7.392460	4467.000000	
7.411910	4404.000000	
7.431360	4622.000000	
7.450810	4581.000000	
7.470260	4440.000000	
7.489710	4337.000000	
7.509160	4455.000000	
7.528610	4419.000000	
7.548070	4516.000000	
7.567520	4458.000000	
7.586970	4538.000000	
7.606420	4581.000000	
7.625870	4509.000000	
7.645320	4487.000000	
7.664770	4491.000000	
7.684220	4544.000000	
7.703670	4420.000000	
7.723120	4497.000000	
7.742570	4427.000000	
7.762020	4486.000000	
7.781470	4473.000000	
7.800920	4460.000000	
7.820370	4349.000000	
7.839820	4344.000000	
7.859270	4373.000000	
7.878720	4408.000000	
7.898170	4317.000000	
7.917620	4390.000000	
7.937070	4397.000000	
7.956520	4366.000000	
7.975970	4536.000000	
7.995420	4470.000000	
8.014870	4463.000000	
8.034320	4517.000000	
8.053770	4512.000000	
8.073220	4321.000000	
8.092670	4387.000000	
8.112120	4462.000000	
8.131570	4521.000000	
8.151020	4304.000000	
8.170470	4403.000000	
8.189920	4393.000000	
8.209370	4352.000000	
8.228820	4343.000000	
8.248270	4409.000000	
8.267720	4363.000000	
8.287170	4416.000000	
8.306620	4426.000000	
8.326070	4480.000000	
8.345520	4358.000000	
8.364970	4315.000000	
8.384420	4353.000000	
8.403870	4393.000000	
8.423320	4428.000000	
8.442770	4389.000000	
8.462220	4462.000000	
8.481670	4307.000000	
8.501120	4346.000000	
8.520570	4299.000000	
8.540020	4316.000000	
8.559470	4243.000000	
8.578920	4242.000000	
8.598370	4375.000000	
8.617820	4318.000000	
8.637270	4385.000000	
8.656720	4327.000000	
8.676170	4411.000000	
8.695620	4336.000000	
8.715070	4303.000000	
8.734520	4320.000000	
8.753970	4298.000000	
8.773420	4236.000000	
8.792870	4379.000000	
8.812320	4304.000000	
8.831770	4431.000000	
8.851220	4238.000000	
8.870670	4222.000000	
8.890120	4252.000000	
8.909570	4347.000000	
8.929020	4180.000000	
8.948470	4228.000000	
8.967920	4277.000000	
8.987370	4310.000000	
9.006820	4328.000000	
9.026270	4195.000000	
9.045720	4136.000000	
9.065170	4152.000000	
9.084620	4264.000000	
9.104070	4178.000000	
9.123520	4346.000000	
9.142970	4305.000000	
9.162430	4252.000000	
9.181880	4151.000000	
9.201330	4089.000000	
9.220770	4342.000000	
9.240220	4107.000000	
9.259680	4259.000000	
9.279130	4225.000000	
9.298580	4357.000000	
9.318030	4100.000000	
9.337480	4101.000000	
9.356930	4144.000000	
9.376380	4158.000000	
9.395830	4187.000000	
9.415280	4203.000000	
9.434730	4288.000000	
9.454180	4151.000000	
9.473630	4157.000000	
9.493080	4258.000000	
9.512530	4309.000000	
9.531980	4275.000000	
9.551430	4295.000000	
9.570880	4171.000000	
9.590330	4068.000000	
9.609780	4196.000000	
9.629230	4230.000000	
9.648680	4270.000000	
9.668130	4127.000000	
9.687580	4184.000000	
9.707030	4144.000000	
9.726480	4197.000000	
9.745930	4028.000000	
9.765380	4236.000000	
9.784830	4088.000000	
9.804280	4254.000000	
9.823730	4055.000000	
9.843180	4128.000000	
9.862630	4127.000000	
9.882080	4319.000000	
9.901530	4227.000000	
9.920980	4194.000000	
9.940430	4208.000000	
9.959880	4234.000000	
9.979330	4123.000000	
9.998780	4078.000000	
10.018230	4127.000000	
10.037680	4093.000000	
10.057130	4030.000000	
10.076580	4125.000000	
10.096030	4118.000000	
10.115480	4179.000000	
10.134930	4127.000000	
10.154380	4128.000000	
10.173830	4142.000000	
10.193280	4179.000000	
10.212730	4157.000000	
10.232180	4159.000000	
10.251630	4132.000000	
10.271080	4227.000000	
10.290530	4297.000000	
10.309980	4021.000000	
10.329430	4141.000000	
10.348880	4266.000000	
10.368330	3959.000000	
10.387780	4061.000000	
10.407230	4172.000000	
10.426680	4168.000000	
10.446130	4174.000000	
10.465580	4140.000000	
10.485030	4045.000000	
10.504480	4233.000000	
10.523930	4077.000000	
10.543380	4106.000000	
10.562830	4083.000000	
10.582280	4197.000000	
10.601730	4081.000000	
10.621180	4087.000000	
10.640630	4040.000000	
10.660080	4155.000000	
10.679530	4229.000000	
10.698980	4170.000000	
10.718430	4160.000000	
10.737880	4197.000000	
10.757330	4136.000000	
10.776780	4102.000000	
10.796230	4084.000000	
10.815680	4230.000000	
10.835130	4135.000000	
10.854580	4128.000000	
10.874030	4157.000000	
10.893490	4195.000000	
10.912940	4147.000000	
10.932390	4152.000000	
10.951840	4186.000000	
10.971290	4133.000000	
10.990740	4054.000000	
11.010190	4088.000000	
11.029640	4136.000000	
11.049090	4189.000000	
11.068540	4143.000000	
11.087990	4187.000000	
11.107440	4189.000000	
11.126890	4022.000000	
11.146340	4240.000000	
11.165790	4132.000000	
11.185240	4056.000000	
11.204690	4027.000000	
11.224140	4077.000000	
11.243590	4172.000000	
11.263040	4153.000000	
11.282490	4165.000000	
11.301940	4243.000000	
11.321390	4189.000000	
11.340840	4193.000000	
11.360290	4078.000000	
11.379740	4211.000000	
11.399190	4192.000000	
11.418640	4173.000000	
11.438090	4153.000000	
11.457540	4194.000000	
11.476990	4217.000000	
11.496440	4115.000000	
11.515890	4152.000000	
11.535340	4192.000000	
11.554790	4156.000000	
11.574240	4133.000000	
11.593690	4102.000000	
11.613140	4046.000000	
11.632590	4217.000000	
11.652040	4105.000000	
11.671490	4298.000000	
11.690940	4092.000000	
11.710390	4163.000000	
11.729840	4194.000000	
11.749290	4199.000000	
11.768740	4116.000000	
11.788190	4116.000000	
11.807640	4141.000000	
11.827090	4191.000000	
11.846540	4003.000000	
11.865990	4140.000000	
11.885440	4092.000000	
11.904890	4100.000000	
11.924340	3978.000000	
11.943790	4125.000000	
11.963240	4026.000000	
11.982690	4060.000000	
12.002140	3900.000000	
12.021590	4157.000000	
12.041040	4083.000000	
12.060490	3983.000000	
12.079940	4017.000000	
12.099390	4009.000000	
12.118840	4074.000000	
12.138290	4077.000000	
12.157740	3985.000000	
12.177190	4120.000000	
12.196640	4033.000000	
12.216090	4009.000000	
12.235540	4012.000000	
12.254990	3989.000000	
12.274440	3962.000000	
12.293890	3931.000000	
12.313340	3911.000000	
12.332790	3939.000000	
12.352240	3935.000000	
12.371690	3975.000000	
12.391140	3881.000000	
12.410590	3897.000000	
12.430040	3891.000000	
12.449490	3791.000000	
12.468940	3893.000000	
12.488390	3831.000000	
12.507840	3824.000000	
12.527300	3774.000000	
12.546740	3935.000000	
12.566190	3853.000000	
12.585640	3842.000000	
12.605090	3818.000000	
12.624550	3715.000000	
12.644000	3834.000000	
12.663450	3697.000000	
12.682900	3716.000000	
12.702350	3663.000000	
12.721800	3604.000000	
12.741250	3672.000000	
12.760700	3574.000000	
12.780150	3641.000000	
12.799600	3589.000000	
12.819050	3782.000000	
12.838500	3589.000000	
12.857950	3517.000000	
12.877400	3625.000000	
12.896850	3588.000000	
12.916300	3641.000000	
12.935750	3529.000000	
12.955200	3472.000000	
12.974650	3532.000000	
12.994100	3513.000000	
13.013550	3489.000000	
13.033000	3395.000000	
13.052450	3369.000000	
13.071900	3419.000000	
13.091350	3334.000000	
13.110800	3494.000000	
13.130250	3402.000000	
13.149700	3353.000000	
13.169150	3362.000000	
13.188600	3288.000000	
13.208050	3306.000000	
13.227500	3245.000000	
13.246950	3320.000000	
13.266400	3277.000000	
13.285850	3130.000000	
13.305300	3248.000000	
13.324750	3279.000000	
13.344200	3112.000000	
13.363650	3142.000000	
13.383100	3100.000000	
13.402550	3174.000000	
13.422000	3079.000000	
13.441450	3150.000000	
13.460900	3065.000000	
13.480350	3044.000000	
13.499800	3020.000000	
13.519250	2867.000000	
13.538700	3061.000000	
13.558150	2861.000000	
13.577600	2917.000000	
13.597050	2889.000000	
13.616500	2973.000000	
13.635950	3018.000000	
13.655400	2904.000000	
13.674850	2874.000000	
13.694300	2903.000000	
13.713750	2987.000000	
13.733200	2836.000000	
13.752650	2874.000000	
13.772100	2923.000000	
13.791550	2821.000000	
13.811000	2889.000000	
13.830450	2935.000000	
13.849900	2952.000000	
13.869350	3036.000000	
13.888800	2992.000000	
13.908250	3105.000000	
13.927700	3107.000000	
13.947150	3150.000000	
13.966600	3182.000000	
13.986050	3220.000000	
14.005500	3332.000000	
14.024950	3373.000000	
14.044400	3381.000000	
14.063850	3622.000000	
14.083300	3837.000000	
14.102750	3930.000000	
14.122200	4127.000000	
14.141650	4286.000000	
14.161100	5302.000000	
14.180550	5775.000000	
14.200000	5753.000000	
14.219450	5680.000000	
14.238900	5450.000000	
14.258360	4776.000000	
14.277810	4620.000000	
14.297260	4709.000000	
14.316710	5244.000000	
14.336150	6313.000000	
14.355610	7497.000000	
14.375060	9725.000000	
14.394510	12044.000000	
14.413960	8805.000000	
14.433410	6791.000000	
14.452860	3915.000000	
14.472310	2874.000000	
14.491760	2455.000000	
14.511210	2427.000000	
14.530660	2368.000000	
14.550110	2268.000000	
14.569560	2273.000000	
14.589010	2227.000000	
14.608460	2134.000000	
14.627910	2178.000000	
14.647360	2160.000000	
14.666810	2174.000000	
14.686260	2072.000000	
14.705710	2096.000000	
14.725160	2045.000000	
14.744610	2069.000000	
14.764060	2006.000000	
14.783510	1951.000000	
14.802960	1990.000000	
14.822410	1952.000000	
14.841860	1922.000000	
14.861310	1888.000000	
14.880760	1884.000000	
14.900210	1890.000000	
14.919660	1888.000000	
14.939110	1820.000000	
14.958560	1810.000000	
14.978010	1895.000000	
14.997460	1801.000000	
15.016910	1838.000000	
15.036360	1824.000000	
15.055810	1816.000000	
15.075260	1801.000000	
15.094710	1791.000000	
15.114160	1777.000000	
15.133610	1764.000000	
15.153060	1765.000000	
15.172510	1795.000000	
15.191960	1748.000000	
15.211410	1681.000000	
15.230860	1686.000000	
15.250310	1676.000000	
15.269760	1675.000000	
15.289210	1680.000000	
15.308660	1623.000000	
15.328110	1675.000000	
15.347560	1692.000000	
15.367010	1651.000000	
15.386460	1609.000000	
15.405910	1594.000000	
15.425360	1583.000000	
15.444810	1639.000000	
15.464260	1564.000000	
15.483710	1603.000000	
15.503160	1551.000000	
15.522610	1621.000000	
15.542060	1557.000000	
15.561510	1548.000000	
15.580960	1573.000000	
15.600410	1535.000000	
15.619860	1510.000000	
15.639310	1499.000000	
15.658760	1468.000000	
15.678210	1561.000000	
15.697660	1401.000000	
15.717110	1439.000000	
15.736560	1451.000000	
15.756010	1425.000000	
15.775460	1440.000000	
15.794910	1459.000000	
15.814360	1411.000000	
15.833810	1419.000000	
15.853260	1400.000000	
15.872710	1392.000000	
15.892160	1389.000000	
15.911610	1350.000000	
15.931060	1389.000000	
15.950510	1360.000000	
15.969960	1328.000000	
15.989420	1299.000000	
16.008870	1309.000000	
16.028310	1314.000000	
16.047770	1332.000000	
16.067210	1364.000000	
16.086670	1266.000000	
16.106120	1260.000000	
16.125570	1266.000000	
16.145020	1276.000000	
16.164470	1344.000000	
16.183920	1235.000000	
16.203370	1267.000000	
16.222820	1309.000000	
16.242270	1249.000000	
16.261720	1234.000000	
16.281170	1285.000000	
16.300620	1210.000000	
16.320070	1281.000000	
16.339520	1241.000000	
16.358970	1165.000000	
16.378420	1151.000000	
16.397870	1176.000000	
16.417320	1169.000000	
16.436770	1177.000000	
16.456220	1108.000000	
16.475670	1184.000000	
16.495120	1124.000000	
16.514570	1178.000000	
16.534020	1197.000000	
16.553470	1146.000000	
16.572920	1202.000000	
16.592370	1144.000000	
16.611820	1151.000000	
16.631270	1126.000000	
16.650720	1145.000000	
16.670170	1128.000000	
16.689620	1092.000000	
16.709070	1072.000000	
16.728520	1101.000000	
16.747970	1120.000000	
16.767420	1071.000000	
16.786870	1009.000000	
16.806320	1050.000000	
16.825770	1093.000000	
16.845220	1077.000000	
16.864670	1083.000000	
16.884120	1065.000000	
16.903570	983.000000	
16.923020	1063.000000	
16.942470	1011.000000	
16.961920	992.000000	
16.981370	1024.000000	
17.000820	1025.000000	
17.020270	1035.000000	
17.039720	1057.000000	
17.059170	1057.000000	
17.078620	1005.000000	
17.098070	994.000000	
17.117520	973.000000	
17.136970	1081.000000	
17.156420	990.000000	
17.175870	993.000000	
17.195320	984.000000	
17.214770	926.000000	
17.234220	974.000000	
17.253670	939.000000	
17.273120	997.000000	
17.292570	967.000000	
17.312020	958.000000	
17.331470	941.000000	
17.350920	994.000000	
17.370370	941.000000	
17.389820	960.000000	
17.409270	935.000000	
17.428720	965.000000	
17.448170	917.000000	
17.467620	941.000000	
17.487070	901.000000	
17.506530	957.000000	
17.525970	902.000000	
17.545420	906.000000	
17.564870	960.000000	
17.584320	883.000000	
17.603780	910.000000	
17.623220	864.000000	
17.642680	915.000000	
17.662120	906.000000	
17.681580	896.000000	
17.701030	890.000000	
17.720480	838.000000	
17.739930	858.000000	
17.759380	885.000000	
17.778830	898.000000	
17.798270	892.000000	
17.817730	814.000000	
17.837180	818.000000	
17.856630	825.000000	
17.876080	837.000000	
17.895530	833.000000	
17.914980	866.000000	
17.934430	830.000000	
17.953880	808.000000	
17.973330	848.000000	
17.992780	854.000000	
18.012230	874.000000	
18.031680	766.000000	
18.051130	810.000000	
18.070580	783.000000	
18.090030	873.000000	
18.109480	825.000000	
18.128930	825.000000	
18.148380	842.000000	
18.167830	732.000000	
18.187280	827.000000	
18.206730	820.000000	
18.226180	778.000000	
18.245630	811.000000	
18.265080	776.000000	
18.284530	747.000000	
18.303980	778.000000	
18.323430	788.000000	
18.342880	712.000000	
18.362330	795.000000	
18.381780	821.000000	
18.401230	729.000000	
18.420680	784.000000	
18.440130	748.000000	
18.459580	726.000000	
18.479030	730.000000	
18.498480	779.000000	
18.517930	713.000000	
18.537380	741.000000	
18.556830	780.000000	
18.576280	729.000000	
18.595730	705.000000	
18.615180	718.000000	
18.634630	710.000000	
18.654080	784.000000	
18.673530	768.000000	
18.692980	702.000000	
18.712430	717.000000	
18.731880	733.000000	
18.751330	678.000000	
18.770780	742.000000	
18.790230	756.000000	
18.809680	708.000000	
18.829130	736.000000	
18.848580	740.000000	
18.868030	686.000000	
18.887480	688.000000	
18.906930	724.000000	
18.926380	700.000000	
18.945830	732.000000	
18.965280	749.000000	
18.984730	687.000000	
19.004180	671.000000	
19.023630	639.000000	
19.043080	683.000000	
19.062530	679.000000	
19.081980	688.000000	
19.101430	735.000000	
19.120880	698.000000	
19.140330	672.000000	
19.159780	700.000000	
19.179230	690.000000	
19.198680	679.000000	
19.218130	707.000000	
19.237590	678.000000	
19.257030	678.000000	
19.276490	660.000000	
19.295930	692.000000	
19.315380	660.000000	
19.334840	692.000000	
19.354280	656.000000	
19.373740	708.000000	
19.393180	671.000000	
19.412640	614.000000	
19.432090	697.000000	
19.451540	677.000000	
19.470990	679.000000	
19.490440	647.000000	
19.509890	655.000000	
19.529340	645.000000	
19.548790	648.000000	
19.568240	652.000000	
19.587690	669.000000	
19.607140	651.000000	
19.626590	657.000000	
19.646040	685.000000	
19.665490	625.000000	
19.684940	663.000000	
19.704390	641.000000	
19.723840	659.000000	
19.743290	644.000000	
19.762740	663.000000	
19.782190	694.000000	
19.801640	693.000000	
19.821090	676.000000	
19.840540	693.000000	
19.859990	710.000000	
19.879440	728.000000	
19.898890	693.000000	
19.918340	768.000000	
19.937790	748.000000	
19.957240	749.000000	
19.976690	813.000000	
19.996140	877.000000	
20.015590	917.000000	
20.035040	942.000000	
20.054490	1035.000000	
20.073940	1144.000000	
20.093390	1302.000000	
20.112840	1248.000000	
20.132290	1465.000000	
20.151740	1742.000000	
20.171190	2204.000000	
20.190640	2105.000000	
20.210090	1971.000000	
20.229540	1912.000000	
20.248990	1994.000000	
20.268440	2062.000000	
20.287890	2305.000000	
20.307340	2024.000000	
20.326790	1576.000000	
20.346240	1347.000000	
20.365690	927.000000	
20.385140	721.000000	
20.404590	623.000000	
20.424040	630.000000	
20.443490	577.000000	
20.462940	566.000000	
20.482390	636.000000	
20.501840	595.000000	
20.521290	616.000000	
20.540740	540.000000	
20.560190	606.000000	
20.579640	587.000000	
20.599090	582.000000	
20.618540	560.000000	
20.637990	601.000000	
20.657440	566.000000	
20.676890	553.000000	
20.696340	553.000000	
20.715790	547.000000	
20.735240	522.000000	
20.754690	554.000000	
20.774140	559.000000	
20.793590	514.000000	
20.813040	567.000000	
20.832490	569.000000	
20.851940	533.000000	
20.871390	538.000000	
20.890840	540.000000	
20.910290	506.000000	
20.929740	583.000000	
20.949190	526.000000	
20.968650	558.000000	
20.988090	532.000000	
21.007550	528.000000	
21.026990	553.000000	
21.046450	526.000000	
21.065900	541.000000	
21.085350	519.000000	
21.104800	506.000000	
21.124240	537.000000	
21.143700	530.000000	
21.163150	513.000000	
21.182600	503.000000	
21.202050	514.000000	
21.221500	499.000000	
21.240950	567.000000	
21.260400	479.000000	
21.279850	505.000000	
21.299300	532.000000	
21.318750	517.000000	
21.338200	531.000000	
21.357650	470.000000	
21.377100	504.000000	
21.396550	508.000000	
21.416000	520.000000	
21.435450	562.000000	
21.454900	502.000000	
21.474350	522.000000	
21.493800	530.000000	
21.513250	554.000000	
21.532700	511.000000	
21.552150	545.000000	
21.571600	523.000000	
21.591050	496.000000	
21.610500	504.000000	
21.629950	515.000000	
21.649400	495.000000	
21.668850	509.000000	
21.688300	486.000000	
21.707750	463.000000	
21.727200	505.000000	
21.746650	538.000000	
21.766100	488.000000	
21.785550	524.000000	
21.805000	484.000000	
21.824450	522.000000	
21.843900	506.000000	
21.863350	433.000000	
21.882800	503.000000	
21.902250	478.000000	
21.921700	495.000000	
21.941150	481.000000	
21.960600	501.000000	
21.980050	557.000000	
21.999500	452.000000	
22.018950	482.000000	
22.038400	503.000000	
22.057850	488.000000	
22.077300	490.000000	
22.096750	468.000000	
22.116200	500.000000	
22.135650	493.000000	
22.155100	524.000000	
22.174550	467.000000	
22.194000	478.000000	
22.213450	473.000000	
22.232900	499.000000	
22.252350	512.000000	
22.271800	505.000000	
22.291250	483.000000	
22.310700	460.000000	
22.330150	473.000000	
22.349600	462.000000	
22.369050	434.000000	
22.388500	530.000000	
22.407950	454.000000	
22.427400	433.000000	
22.446850	444.000000	
22.466300	476.000000	
22.485750	481.000000	
22.505200	473.000000	
22.524650	496.000000	
22.544100	477.000000	
22.563550	488.000000	
22.583000	460.000000	
22.602460	479.000000	
22.621900	517.000000	
22.641350	429.000000	
22.660800	482.000000	
22.680250	496.000000	
22.699710	500.000000	
22.719150	461.000000	
22.738610	449.000000	
22.758050	489.000000	
22.777510	434.000000	
22.796960	449.000000	
22.816410	525.000000	
22.835860	514.000000	
22.855310	473.000000	
22.874760	438.000000	
22.894210	467.000000	
22.913660	457.000000	
22.933110	465.000000	
22.952560	466.000000	
22.972010	449.000000	
22.991460	478.000000	
23.010910	432.000000	
23.030360	494.000000	
23.049810	484.000000	
23.069260	460.000000	
23.088710	510.000000	
23.108160	456.000000	
23.127610	443.000000	
23.147060	457.000000	
23.166510	508.000000	
23.185960	475.000000	
23.205410	453.000000	
23.224860	485.000000	
23.244310	485.000000	
23.263760	535.000000	
23.283210	491.000000	
23.302660	498.000000	
23.322110	509.000000	
23.341560	472.000000	
23.361010	493.000000	
23.380460	505.000000	
23.399910	550.000000	
23.419360	579.000000	
23.438810	576.000000	
23.458260	604.000000	
23.477710	597.000000	
23.497160	678.000000	
23.516610	675.000000	
23.536060	796.000000	
23.555510	786.000000	
23.574960	807.000000	
23.594410	852.000000	
23.613860	930.000000	
23.633310	1003.000000	
23.652760	989.000000	
23.672210	1169.000000	
23.691660	1382.000000	
23.711110	1697.000000	
23.730560	2093.000000	
23.750010	2515.000000	
23.769460	2088.000000	
23.788910	1453.000000	
23.808360	1360.000000	
23.827810	1076.000000	
23.847260	780.000000	
23.866710	614.000000	
23.886160	519.000000	
23.905610	554.000000	
23.925060	518.000000	
23.944510	510.000000	
23.963960	488.000000	
23.983410	494.000000	
24.002860	493.000000	
24.022310	506.000000	
24.041760	477.000000	
24.061210	507.000000	
24.080660	481.000000	
24.100110	485.000000	
24.119560	462.000000	
24.139010	464.000000	
24.158460	459.000000	
24.177910	436.000000	
24.197360	459.000000	
24.216810	446.000000	
24.236260	450.000000	
24.255710	472.000000	
24.275160	477.000000	
24.294610	449.000000	
24.314060	488.000000	
24.333520	513.000000	
24.352960	536.000000	
24.372420	516.000000	
24.391860	565.000000	
24.411310	593.000000	
24.430770	596.000000	
24.450210	621.000000	
24.469670	596.000000	
24.489110	616.000000	
24.508570	626.000000	
24.528020	623.000000	
24.547470	661.000000	
24.566920	711.000000	
24.586370	673.000000	
24.605820	704.000000	
24.625270	780.000000	
24.644720	799.000000	
24.664170	1028.000000	
24.683620	1172.000000	
24.703070	1253.000000	
24.722520	1309.000000	
24.741970	1447.000000	
24.761420	1550.000000	
24.780870	1357.000000	
24.800320	1008.000000	
24.819770	900.000000	
24.839220	819.000000	
24.858670	596.000000	
24.878120	481.000000	
24.897570	519.000000	
24.917020	456.000000	
24.936470	463.000000	
24.955920	461.000000	
24.975370	472.000000	
24.994820	444.000000	
25.014270	437.000000	
25.033720	469.000000	
25.053170	438.000000	
25.072620	477.000000	
25.092070	416.000000	
25.111520	485.000000	
25.130970	434.000000	
25.150420	419.000000	
25.169870	436.000000	
25.189320	495.000000	
25.208770	466.000000	
25.228220	455.000000	
25.247670	418.000000	
25.267120	409.000000	
25.286570	469.000000	
25.306020	451.000000	
25.325470	448.000000	
25.344920	449.000000	
25.364370	466.000000	
25.383820	426.000000	
25.403270	413.000000	
25.422720	442.000000	
25.442170	474.000000	
25.461620	426.000000	
25.481070	426.000000	
25.500520	391.000000	
25.519970	419.000000	
25.539420	454.000000	
25.558870	445.000000	
25.578320	428.000000	
25.597770	445.000000	
25.617220	413.000000	
25.636670	441.000000	
25.656120	434.000000	
25.675570	422.000000	
25.695020	424.000000	
25.714470	436.000000	
25.733920	406.000000	
25.753370	462.000000	
25.772820	420.000000	
25.792270	441.000000	
25.811720	437.000000	
25.831170	381.000000	
25.850620	429.000000	
25.870070	420.000000	
25.889520	458.000000	
25.908970	400.000000	
25.928420	499.000000	
25.947870	457.000000	
25.967320	438.000000	
25.986770	393.000000	
26.006220	411.000000	
26.025670	462.000000	
26.045120	466.000000	
26.064580	425.000000	
26.084020	396.000000	
26.103480	422.000000	
26.122920	388.000000	
26.142380	426.000000	
26.161830	434.000000	
26.181280	410.000000	
26.200730	419.000000	
26.220170	442.000000	
26.239630	420.000000	
26.259080	425.000000	
26.278530	435.000000	
26.297980	432.000000	
26.317430	424.000000	
26.336880	418.000000	
26.356330	441.000000	
26.375780	416.000000	
26.395230	429.000000	
26.414680	408.000000	
26.434130	427.000000	
26.453580	396.000000	
26.473030	420.000000	
26.492480	420.000000	
26.511930	406.000000	
26.531380	426.000000	
26.550830	377.000000	
26.570280	449.000000	
26.589730	413.000000	
26.609180	396.000000	
26.628630	456.000000	
26.648080	430.000000	
26.667530	391.000000	
26.686980	431.000000	
26.706430	407.000000	
26.725880	414.000000	
26.745330	423.000000	
26.764780	418.000000	
26.784230	418.000000	
26.803680	408.000000	
26.823130	439.000000	
26.842580	405.000000	
26.862030	374.000000	
26.881480	419.000000	
26.900930	405.000000	
26.920380	411.000000	
26.939830	420.000000	
26.959280	362.000000	
26.978730	436.000000	
26.998180	384.000000	
27.017630	383.000000	
27.037080	391.000000	
27.056530	423.000000	
27.075980	420.000000	
27.095430	386.000000	
27.114880	415.000000	
27.134330	427.000000	
27.153780	437.000000	
27.173230	447.000000	
27.192680	417.000000	
27.212130	410.000000	
27.231580	434.000000	
27.251030	441.000000	
27.270480	395.000000	
27.289930	382.000000	
27.309380	385.000000	
27.328830	401.000000	
27.348280	418.000000	
27.367730	418.000000	
27.387180	448.000000	
27.406630	420.000000	
27.426080	407.000000	
27.445530	395.000000	
27.464980	421.000000	
27.484430	408.000000	
27.503880	417.000000	
27.523330	421.000000	
27.542780	415.000000	
27.562230	439.000000	
27.581680	440.000000	
27.601130	425.000000	
27.620580	402.000000	
27.640030	422.000000	
27.659480	427.000000	
27.678930	492.000000	
27.698390	438.000000	
27.717830	445.000000	
27.737280	464.000000	
27.756730	469.000000	
27.776180	469.000000	
27.795640	468.000000	
27.815080	483.000000	
27.834540	466.000000	
27.853980	495.000000	
27.873440	479.000000	
27.892890	524.000000	
27.912340	516.000000	
27.931790	511.000000	
27.951240	499.000000	
27.970690	597.000000	
27.990140	525.000000	
28.009590	528.000000	
28.029040	592.000000	
28.048490	683.000000	
28.067940	693.000000	
28.087390	717.000000	
28.106840	689.000000	
28.126290	759.000000	
28.145740	798.000000	
28.165190	796.000000	
28.184640	787.000000	
28.204090	975.000000	
28.223540	1157.000000	
28.242990	1143.000000	
28.262440	1339.000000	
28.281890	1742.000000	
28.301340	1908.000000	
28.320790	2265.000000	
28.340240	2825.000000	
28.359690	2910.000000	
28.379140	3211.000000	
28.398590	3521.000000	
28.418040	2871.000000	
28.437490	2270.000000	
28.456940	2163.000000	
28.476390	2055.000000	
28.495840	1695.000000	
28.515290	1313.000000	
28.534740	1386.000000	
28.554190	1585.000000	
28.573640	1979.000000	
28.593090	1986.000000	
28.612540	2212.000000	
28.631990	3117.000000	
28.651440	4805.000000	
28.670890	6983.000000	
28.690340	8791.000000	
28.709790	14249.000000	
28.729240	18125.000000	
28.748690	8175.000000	
28.768140	5891.000000	
28.787590	8549.000000	
28.807040	7040.000000	
28.826490	2290.000000	
28.845940	1220.000000	
28.865390	984.000000	
28.884840	875.000000	
28.904290	812.000000	
28.923740	762.000000	
28.943190	757.000000	
28.962640	786.000000	
28.982090	671.000000	
29.001540	672.000000	
29.020990	566.000000	
29.040440	552.000000	
29.059890	542.000000	
29.079340	498.000000	
29.098790	521.000000	
29.118240	491.000000	
29.137690	502.000000	
29.157140	521.000000	
29.176590	514.000000	
29.196040	461.000000	
29.215490	461.000000	
29.234940	418.000000	
29.254390	441.000000	
29.273840	461.000000	
29.293290	421.000000	
29.312740	491.000000	
29.332190	448.000000	
29.351640	410.000000	
29.371090	447.000000	
29.390540	422.000000	
29.409990	434.000000	
29.429450	482.000000	
29.448890	432.000000	
29.468350	461.000000	
29.487790	431.000000	
29.507250	454.000000	
29.526700	468.000000	
29.546140	474.000000	
29.565600	397.000000	
29.585040	458.000000	
29.604500	393.000000	
29.623950	390.000000	
29.643400	430.000000	
29.662850	430.000000	
29.682300	433.000000	
29.701750	430.000000	
29.721200	449.000000	
29.740650	422.000000	
29.760100	399.000000	
29.779550	440.000000	
29.799000	443.000000	
29.818450	449.000000	
29.837900	396.000000	
29.857350	398.000000	
29.876800	425.000000	
29.896250	436.000000	
29.915700	445.000000	
29.935150	436.000000	
29.954600	421.000000	
29.974050	420.000000	
29.993500	413.000000	
30.012950	376.000000	
30.032400	387.000000	
30.051850	409.000000	
30.071300	427.000000	
30.090750	387.000000	
30.110200	409.000000	
30.129650	457.000000	
30.149100	376.000000	
30.168550	407.000000	
30.188000	404.000000	
30.207450	427.000000	
30.226900	401.000000	
30.246350	412.000000	
30.265800	417.000000	
30.285250	409.000000	
30.304700	411.000000	
30.324150	439.000000	
30.343600	426.000000	
30.363050	383.000000	
30.382500	399.000000	
30.401950	445.000000	
30.421400	412.000000	
30.440850	405.000000	
30.460300	407.000000	
30.479750	390.000000	
30.499200	423.000000	
30.518650	418.000000	
30.538100	446.000000	
30.557550	409.000000	
30.577000	412.000000	
30.596450	381.000000	
30.615900	424.000000	
30.635350	440.000000	
30.654800	389.000000	
30.674250	423.000000	
30.693700	439.000000	
30.713150	440.000000	
30.732600	427.000000	
30.752050	414.000000	
30.771500	424.000000	
30.790950	431.000000	
30.810400	487.000000	
30.829850	501.000000	
30.849300	439.000000	
30.868750	477.000000	
30.888200	512.000000	
30.907650	533.000000	
30.927100	555.000000	
30.946550	551.000000	
30.966000	575.000000	
30.985450	572.000000	
31.004900	588.000000	
31.024350	687.000000	
31.043800	661.000000	
31.063250	657.000000	
31.082700	759.000000	
31.102150	785.000000	
31.121600	993.000000	
31.141050	1141.000000	
31.160510	1217.000000	
31.179950	1199.000000	
31.199410	936.000000	
31.218850	896.000000	
31.238310	771.000000	
31.257760	757.000000	
31.277210	657.000000	
31.296660	571.000000	
31.316100	475.000000	
31.335560	457.000000	
31.355010	491.000000	
31.374460	508.000000	
31.393910	488.000000	
31.413360	548.000000	
31.432810	455.000000	
31.452260	478.000000	
31.471710	508.000000	
31.491160	503.000000	
31.510610	512.000000	
31.530060	550.000000	
31.549510	624.000000	
31.568960	650.000000	
31.588410	688.000000	
31.607860	812.000000	
31.627310	877.000000	
31.646760	891.000000	
31.666210	1050.000000	
31.685660	1163.000000	
31.705110	1133.000000	
31.724560	1002.000000	
31.744010	1186.000000	
31.763460	1480.000000	
31.782910	1700.000000	
31.802360	2017.000000	
31.821810	2433.000000	
31.841260	2908.000000	
31.860710	4103.000000	
31.880160	4504.000000	
31.899610	3844.000000	
31.919060	3319.000000	
31.938510	3391.000000	
31.957960	3585.000000	
31.977410	3239.000000	
31.996860	3206.000000	
32.016310	3144.000000	
32.035760	3669.000000	
32.055210	4306.000000	
32.074660	4832.000000	
32.094110	5318.000000	
32.113560	5689.000000	
32.133010	6525.000000	
32.152460	7842.000000	
32.171910	7034.000000	
32.191360	4865.000000	
32.210810	3670.000000	
32.230260	3548.000000	
32.249710	3206.000000	
32.269160	1972.000000	
32.288610	1181.000000	
32.308060	826.000000	
32.327510	660.000000	
32.346960	660.000000	
32.366410	645.000000	
32.385860	593.000000	
32.405310	546.000000	
32.424760	533.000000	
32.444210	498.000000	
32.463660	484.000000	
32.483110	510.000000	
32.502560	464.000000	
32.522010	439.000000	
32.541460	439.000000	
32.560910	428.000000	
32.580360	371.000000	
32.599810	404.000000	
32.619260	446.000000	
32.638710	494.000000	
32.658160	440.000000	
32.677610	496.000000	
32.697060	439.000000	
32.716510	435.000000	
32.735970	405.000000	
32.755410	429.000000	
32.774860	425.000000	
32.794320	416.000000	
32.813770	465.000000	
32.833210	410.000000	
32.852660	390.000000	
32.872120	427.000000	
32.891560	384.000000	
32.911010	413.000000	
32.930470	443.000000	
32.949920	441.000000	
32.969360	396.000000	
32.988820	372.000000	
33.008270	409.000000	
33.027720	383.000000	
33.047160	384.000000	
33.066620	409.000000	
33.086070	415.000000	
33.105510	375.000000	
33.124970	375.000000	
33.144420	391.000000	
33.163870	362.000000	
33.183320	417.000000	
33.202770	419.000000	
33.222220	400.000000	
33.241670	389.000000	
33.261120	381.000000	
33.280570	371.000000	
33.300020	393.000000	
33.319470	376.000000	
33.338920	379.000000	
33.358370	388.000000	
33.377820	381.000000	
33.397270	406.000000	
33.416720	388.000000	
33.436170	422.000000	
33.455620	358.000000	
33.475070	368.000000	
33.494520	400.000000	
33.513970	359.000000	
33.533420	388.000000	
33.552870	346.000000	
33.572320	379.000000	
33.591770	363.000000	
33.611220	392.000000	
33.630670	380.000000	
33.650120	372.000000	
33.669570	377.000000	
33.689020	350.000000	
33.708470	388.000000	
33.727920	379.000000	
33.747370	375.000000	
33.766820	364.000000	
33.786270	391.000000	
33.805720	375.000000	
33.825170	370.000000	
33.844620	376.000000	
33.864070	386.000000	
33.883520	376.000000	
33.902970	374.000000	
33.922420	387.000000	
33.941870	384.000000	
33.961320	378.000000	
33.980770	395.000000	
34.000220	381.000000	
34.019670	380.000000	
34.039120	367.000000	
34.058570	328.000000	
34.078020	361.000000	
34.097470	397.000000	
34.116920	365.000000	
34.136370	417.000000	
34.155820	398.000000	
34.175270	431.000000	
34.194720	359.000000	
34.214170	350.000000	
34.233620	376.000000	
34.253070	382.000000	
34.272520	355.000000	
34.291970	393.000000	
34.311420	405.000000	
34.330880	396.000000	
34.350320	345.000000	
34.369770	405.000000	
34.389230	401.000000	
34.408670	408.000000	
34.428120	376.000000	
34.447570	364.000000	
34.467030	370.000000	
34.486470	375.000000	
34.505920	377.000000	
34.525380	408.000000	
34.544830	368.000000	
34.564270	352.000000	
34.583720	418.000000	
34.603180	367.000000	
34.622620	385.000000	
34.642070	404.000000	
34.661530	371.000000	
34.680980	401.000000	
34.700420	396.000000	
34.719880	465.000000	
34.739330	455.000000	
34.758780	495.000000	
34.778220	471.000000	
34.797680	488.000000	
34.817130	502.000000	
34.836580	481.000000	
34.856030	531.000000	
34.875480	537.000000	
34.894930	516.000000	
34.914380	595.000000	
34.933830	699.000000	
34.953280	837.000000	
34.972730	774.000000	
34.992180	980.000000	
35.011630	1024.000000	
35.031080	1192.000000	
35.050530	1202.000000	
35.069980	1113.000000	
35.089430	1046.000000	
35.108880	994.000000	
35.128330	1031.000000	
35.147780	1080.000000	
35.167230	1097.000000	
35.186680	1298.000000	
35.206130	1386.000000	
35.225580	1335.000000	
35.245030	1097.000000	
35.264480	848.000000	
35.283930	883.000000	
35.303380	874.000000	
35.322830	708.000000	
35.342280	607.000000	
35.361730	464.000000	
35.381180	400.000000	
35.400630	417.000000	
35.420080	402.000000	
35.439530	405.000000	
35.458980	382.000000	
35.478430	411.000000	
35.497880	390.000000	
35.517330	409.000000	
35.536780	374.000000	
35.556230	367.000000	
35.575680	348.000000	
35.595130	364.000000	
35.614580	363.000000	
35.634030	362.000000	
35.653480	381.000000	
35.672930	379.000000	
35.692380	351.000000	
35.711830	352.000000	
35.731280	316.000000	
35.750730	325.000000	
35.770180	341.000000	
35.789630	373.000000	
35.809080	353.000000	
35.828530	356.000000	
35.847980	350.000000	
35.867430	347.000000	
35.886880	372.000000	
35.906330	376.000000	
35.925780	312.000000	
35.945230	348.000000	
35.964680	357.000000	
35.984130	345.000000	
36.003580	373.000000	
36.023030	344.000000	
36.042480	339.000000	
36.061940	351.000000	
36.081380	361.000000	
36.100830	339.000000	
36.120290	348.000000	
36.139740	338.000000	
36.159180	336.000000	
36.178630	343.000000	
36.198090	354.000000	
36.217530	364.000000	
36.236980	355.000000	
36.256440	352.000000	
36.275890	331.000000	
36.295330	351.000000	
36.314790	354.000000	
36.334240	346.000000	
36.353690	318.000000	
36.373130	337.000000	
36.392590	333.000000	
36.412040	377.000000	
36.431480	337.000000	
36.450940	314.000000	
36.470390	351.000000	
36.489840	358.000000	
36.509280	337.000000	
36.528740	331.000000	
36.548190	357.000000	
36.567640	370.000000	
36.587090	338.000000	
36.606540	360.000000	
36.625990	320.000000	
36.645440	361.000000	
36.664890	350.000000	
36.684340	379.000000	
36.703790	356.000000	
36.723240	348.000000	
36.742690	385.000000	
36.762140	325.000000	
36.781590	336.000000	
36.801040	364.000000	
36.820490	387.000000	
36.839940	386.000000	
36.859390	360.000000	
36.878840	373.000000	
36.898290	339.000000	
36.917740	389.000000	
36.937190	353.000000	
36.956640	320.000000	
36.976090	336.000000	
36.995540	350.000000	
37.014990	340.000000	
37.034440	354.000000	
37.053890	388.000000	
37.073340	312.000000	
37.092790	327.000000	
37.112240	381.000000	
37.131690	363.000000	
37.151140	341.000000	
37.170590	361.000000	
37.190040	354.000000	
37.209490	335.000000	
37.228940	400.000000	
37.248390	389.000000	
37.267840	378.000000	
37.287290	384.000000	
37.306740	370.000000	
37.326190	391.000000	
37.345640	371.000000	
37.365090	410.000000	
37.384540	416.000000	
37.403990	454.000000	
37.423440	503.000000	
37.442890	589.000000	
37.462340	552.000000	
37.481790	548.000000	
37.501240	468.000000	
37.520690	461.000000	
37.540140	479.000000	
37.559590	430.000000	
37.579040	448.000000	
37.598490	382.000000	
37.617940	383.000000	
37.637390	369.000000	
37.656850	363.000000	
37.676290	368.000000	
37.695740	353.000000	
37.715190	344.000000	
37.734640	341.000000	
37.754090	343.000000	
37.773540	347.000000	
37.793000	349.000000	
37.812440	344.000000	
37.831890	332.000000	
37.851350	322.000000	
37.870800	341.000000	
37.890240	351.000000	
37.909690	336.000000	
37.929150	353.000000	
37.948590	354.000000	
37.968040	368.000000	
37.987500	332.000000	
38.006950	354.000000	
38.026390	334.000000	
38.045850	337.000000	
38.065300	328.000000	
38.084750	351.000000	
38.104190	349.000000	
38.123650	347.000000	
38.143100	320.000000	
38.162550	388.000000	
38.182000	320.000000	
38.201450	315.000000	
38.220900	330.000000	
38.240350	347.000000	
38.259800	367.000000	
38.279250	379.000000	
38.298700	380.000000	
38.318150	336.000000	
38.337600	394.000000	
38.357050	366.000000	
38.376500	368.000000	
38.395950	334.000000	
38.415400	334.000000	
38.434850	350.000000	
38.454300	360.000000	
38.473750	353.000000	
38.493200	356.000000	
38.512650	365.000000	
38.532100	377.000000	
38.551550	369.000000	
38.571000	366.000000	
38.590450	377.000000	
38.609900	369.000000	
38.629350	368.000000	
38.648800	345.000000	
38.668250	337.000000	
38.687700	392.000000	
38.707150	388.000000	
38.726600	353.000000	
38.746050	345.000000	
38.765500	397.000000	
38.784950	355.000000	
38.804400	384.000000	
38.823850	344.000000	
38.843300	354.000000	
38.862750	350.000000	
38.882200	321.000000	
38.901650	341.000000	
38.921100	365.000000	
38.940550	362.000000	
38.960000	368.000000	
38.979450	362.000000	
38.998900	370.000000	
39.018350	352.000000	
39.037800	359.000000	
39.057250	375.000000	
39.076700	353.000000	
39.096150	391.000000	
39.115600	417.000000	
39.135050	351.000000	
39.154500	360.000000	
39.173950	368.000000	
39.193400	365.000000	
39.212850	355.000000	
39.232300	378.000000	
39.251750	422.000000	
39.271200	394.000000	
39.290650	373.000000	
39.310100	386.000000	
39.329550	391.000000	
39.349000	372.000000	
39.368450	395.000000	
39.387910	391.000000	
39.407350	379.000000	
39.426800	383.000000	
39.446250	394.000000	
39.465710	396.000000	
39.485150	372.000000	
39.504600	406.000000	
39.524060	402.000000	
39.543500	408.000000	
39.562950	442.000000	
39.582410	410.000000	
39.601860	436.000000	
39.621300	418.000000	
39.640750	418.000000	
39.660210	398.000000	
39.679660	369.000000	
39.699100	405.000000	
39.718560	416.000000	
39.738010	421.000000	
39.757450	427.000000	
39.776910	421.000000	
39.796360	403.000000	
39.815810	445.000000	
39.835250	402.000000	
39.854710	399.000000	
39.874160	408.000000	
39.893610	449.000000	
39.913060	438.000000	
39.932510	418.000000	
39.951960	424.000000	
39.971410	419.000000	
39.990860	413.000000	
40.010310	443.000000	
40.029760	453.000000	
40.049210	406.000000	
40.068660	391.000000	
40.088110	391.000000	
40.107560	477.000000	
40.127010	463.000000	
40.146460	472.000000	
40.165910	469.000000	
40.185360	455.000000	
40.204810	424.000000	
40.224260	484.000000	
40.243710	458.000000	
40.263160	468.000000	
40.282610	483.000000	
40.302060	534.000000	
40.321510	540.000000	
40.340960	610.000000	
40.360410	551.000000	
40.379860	623.000000	
40.399310	663.000000	
40.418760	725.000000	
40.438210	844.000000	
40.457660	847.000000	
40.477110	946.000000	
40.496560	1140.000000	
40.516010	1241.000000	
40.535460	1344.000000	
40.554910	1300.000000	
40.574360	1517.000000	
40.593810	2099.000000	
40.613260	2932.000000	
40.632710	3461.000000	
40.652160	4614.000000	
40.671610	6800.000000	
40.691060	8764.000000	
40.710510	8441.000000	
40.729960	5369.000000	
40.749410	3561.000000	
40.768860	3819.000000	
40.788310	4851.000000	
40.807760	5023.000000	
40.827210	4145.000000	
40.846660	3129.000000	
40.866110	2898.000000	
40.885560	3087.000000	
40.905010	4410.000000	
40.924460	6414.000000	
40.943910	6958.000000	
40.963360	3813.000000	
40.982810	2262.000000	
41.002260	2310.000000	
41.021710	3023.000000	
41.041160	3661.000000	
41.060610	2640.000000	
41.080060	1201.000000	
41.099510	786.000000	
41.118970	685.000000	
41.138410	672.000000	
41.157860	657.000000	
41.177310	636.000000	
41.196770	553.000000	
41.216210	552.000000	
41.235660	531.000000	
41.255120	519.000000	
41.274560	513.000000	
41.294010	465.000000	
41.313470	488.000000	
41.332920	494.000000	
41.352360	473.000000	
41.371810	483.000000	
41.391270	480.000000	
41.410720	438.000000	
41.430160	468.000000	
41.449620	458.000000	
41.469070	434.000000	
41.488520	455.000000	
41.507970	452.000000	
41.527420	451.000000	
41.546870	458.000000	
41.566310	423.000000	
41.585770	434.000000	
41.605220	392.000000	
41.624670	467.000000	
41.644120	466.000000	
41.663570	448.000000	
41.683020	395.000000	
41.702470	442.000000	
41.721920	463.000000	
41.741370	466.000000	
41.760820	399.000000	
41.780270	465.000000	
41.799720	438.000000	
41.819170	421.000000	
41.838620	448.000000	
41.858070	449.000000	
41.877520	421.000000	
41.896970	457.000000	
41.916420	459.000000	
41.935870	427.000000	
41.955320	451.000000	
41.974770	449.000000	
41.994220	460.000000	
42.013670	439.000000	
42.033120	450.000000	
42.052570	444.000000	
42.072020	434.000000	
42.091470	437.000000	
42.110920	437.000000	
42.130370	494.000000	
42.149820	428.000000	
42.169270	448.000000	
42.188720	438.000000	
42.208170	449.000000	
42.227620	461.000000	
42.247070	488.000000	
42.266520	443.000000	
42.285970	480.000000	
42.305420	489.000000	
42.324870	517.000000	
42.344320	519.000000	
42.363770	469.000000	
42.383220	506.000000	
42.402670	464.000000	
42.422120	535.000000	
42.441570	547.000000	
42.461020	581.000000	
42.480470	653.000000	
42.499920	769.000000	
42.519370	782.000000	
42.538820	769.000000	
42.558270	742.000000	
42.577720	615.000000	
42.597170	650.000000	
42.616620	722.000000	
42.636070	763.000000	
42.655520	711.000000	
42.674970	695.000000	
42.694420	742.000000	
42.713870	848.000000	
42.733320	882.000000	
42.752770	912.000000	
42.772220	953.000000	
42.791670	1054.000000	
42.811120	1331.000000	
42.830570	1783.000000	
42.850030	2196.000000	
42.869470	1989.000000	
42.888920	1387.000000	
42.908370	1220.000000	
42.927830	1171.000000	
42.947270	1407.000000	
42.966720	1560.000000	
42.986180	1283.000000	
43.005630	1169.000000	
43.025070	1121.000000	
43.044530	1050.000000	
43.063980	1089.000000	
43.083420	1072.000000	
43.102870	1132.000000	
43.122330	1301.000000	
43.141780	1550.000000	
43.161220	1423.000000	
43.180680	1386.000000	
43.200130	1633.000000	
43.219580	2103.000000	
43.239030	2947.000000	
43.258480	3725.000000	
43.277930	3781.000000	
43.297380	3990.000000	
43.316830	3210.000000	
43.336280	2358.000000	
43.355730	2334.000000	
43.375180	2524.000000	
43.394630	2628.000000	
43.414080	2693.000000	
43.433530	2440.000000	
43.452980	2105.000000	
43.472430	2166.000000	
43.491880	1918.000000	
43.511330	2488.000000	
43.530780	2095.000000	
43.550230	1286.000000	
43.569680	1164.000000	
43.589130	1229.000000	
43.608580	1038.000000	
43.628030	1313.000000	
43.647480	984.000000	
43.666930	638.000000	
43.686380	526.000000	
43.705830	530.000000	
43.725280	477.000000	
43.744730	503.000000	
43.764180	497.000000	
43.783630	454.000000	
43.803080	430.000000	
43.822530	443.000000	
43.841980	442.000000	
43.861430	492.000000	
43.880880	433.000000	
43.900330	421.000000	
43.919780	410.000000	
43.939230	422.000000	
43.958680	448.000000	
43.978130	454.000000	
43.997580	410.000000	
44.017030	438.000000	
44.036480	416.000000	
44.055930	422.000000	
44.075380	362.000000	
44.094830	414.000000	
44.114280	439.000000	
44.133730	395.000000	
44.153180	417.000000	
44.172630	404.000000	
44.192080	411.000000	
44.211530	406.000000	
44.230980	414.000000	
44.250430	387.000000	
44.269880	383.000000	
44.289330	389.000000	
44.308780	410.000000	
44.328230	365.000000	
44.347680	375.000000	
44.367130	410.000000	
44.386580	394.000000	
44.406030	402.000000	
44.425480	395.000000	
44.444930	396.000000	
44.464380	401.000000	
44.483830	374.000000	
44.503280	398.000000	
44.522740	444.000000	
44.542180	381.000000	
44.561630	360.000000	
44.581090	387.000000	
44.600530	398.000000	
44.619980	386.000000	
44.639430	414.000000	
44.658890	385.000000	
44.678330	399.000000	
44.697780	369.000000	
44.717240	391.000000	
44.736690	412.000000	
44.756130	399.000000	
44.775590	402.000000	
44.795040	445.000000	
44.814490	369.000000	
44.833930	387.000000	
44.853390	368.000000	
44.872840	401.000000	
44.892280	415.000000	
44.911740	389.000000	
44.931190	413.000000	
44.950640	393.000000	
44.970090	359.000000	
44.989540	411.000000	
45.008990	390.000000	
45.028440	391.000000	
45.047890	378.000000	
45.067340	361.000000	
45.086790	384.000000	
45.106240	405.000000	
45.125690	384.000000	
45.145140	379.000000	
45.164590	401.000000	
45.184040	399.000000	
45.203490	357.000000	
45.222940	394.000000	
45.242390	379.000000	
45.261840	385.000000	
45.281290	385.000000	
45.300740	422.000000	
45.320190	377.000000	
45.339640	390.000000	
45.359090	390.000000	
45.378540	397.000000	
45.397990	378.000000	
45.417440	392.000000	
45.436890	416.000000	
45.456340	435.000000	
45.475790	441.000000	
45.495240	451.000000	
45.514690	444.000000	
45.534140	449.000000	
45.553590	439.000000	
45.573040	423.000000	
45.592490	416.000000	
45.611940	452.000000	
45.631390	435.000000	
45.650840	417.000000	
45.670290	445.000000	
45.689740	440.000000	
45.709190	396.000000	
45.728640	454.000000	
45.748090	427.000000	
45.767540	460.000000	
45.786990	411.000000	
45.806440	395.000000	
45.825890	415.000000	
45.845340	457.000000	
45.864790	468.000000	
45.884240	505.000000	
45.903690	518.000000	
45.923140	617.000000	
45.942590	686.000000	
45.962040	676.000000	
45.981490	658.000000	
46.000940	550.000000	
46.020390	501.000000	
46.039840	528.000000	
46.059290	495.000000	
46.078740	525.000000	
46.098190	524.000000	
46.117640	446.000000	
46.137090	390.000000	
46.156540	397.000000	
46.175990	406.000000	
46.195440	366.000000	
46.214890	377.000000	
46.234340	357.000000	
46.253800	368.000000	
46.273240	386.000000	
46.292690	382.000000	
46.312150	346.000000	
46.331600	366.000000	
46.351040	373.000000	
46.370490	391.000000	
46.389950	371.000000	
46.409390	373.000000	
46.428840	381.000000	
46.448300	344.000000	
46.467750	383.000000	
46.487190	368.000000	
46.506650	365.000000	
46.526100	360.000000	
46.545550	398.000000	
46.564990	343.000000	
46.584450	387.000000	
46.603900	396.000000	
46.623340	389.000000	
46.642800	388.000000	
46.662250	331.000000	
46.681700	383.000000	
46.701150	380.000000	
46.720600	343.000000	
46.740050	383.000000	
46.759500	375.000000	
46.778950	377.000000	
46.798400	348.000000	
46.817850	381.000000	
46.837300	368.000000	
46.856750	358.000000	
46.876200	359.000000	
46.895650	379.000000	
46.915100	388.000000	
46.934550	321.000000	
46.954000	378.000000	
46.973450	374.000000	
46.992900	368.000000	
47.012350	351.000000	
47.031800	361.000000	
47.051250	359.000000	
47.070700	391.000000	
47.090150	362.000000	
47.109600	343.000000	
47.129050	399.000000	
47.148500	387.000000	
47.167950	359.000000	
47.187400	347.000000	
47.206850	376.000000	
47.226300	355.000000	
47.245750	397.000000	
47.265200	400.000000	
47.284650	368.000000	
47.304100	409.000000	
47.323550	357.000000	
47.343000	389.000000	
47.362450	404.000000	
47.381900	403.000000	
47.401350	392.000000	
47.420800	445.000000	
47.440250	455.000000	
47.459700	501.000000	
47.479150	482.000000	
47.498600	523.000000	
47.518050	513.000000	
47.537500	538.000000	
47.556950	567.000000	
47.576400	704.000000	
47.595850	740.000000	
47.615300	826.000000	
47.634750	876.000000	
47.654200	852.000000	
47.673650	712.000000	
47.693100	553.000000	
47.712550	543.000000	
47.732000	567.000000	
47.751450	562.000000	
47.770900	617.000000	
47.790350	580.000000	
47.809800	497.000000	
47.829250	446.000000	
47.848710	437.000000	
47.868150	457.000000	
47.887600	419.000000	
47.907050	403.000000	
47.926500	396.000000	
47.945950	372.000000	
47.965400	370.000000	
47.984860	405.000000	
48.004300	385.000000	
48.023750	417.000000	
48.043210	396.000000	
48.062660	360.000000	
48.082100	342.000000	
48.101550	354.000000	
48.121010	380.000000	
48.140460	348.000000	
48.159900	369.000000	
48.179360	333.000000	
48.198810	341.000000	
48.218250	342.000000	
48.237710	355.000000	
48.257160	372.000000	
48.276610	352.000000	
48.296050	353.000000	
48.315510	365.000000	
48.334960	339.000000	
48.354410	372.000000	
48.373860	359.000000	
48.393310	368.000000	
48.412760	356.000000	
48.432210	354.000000	
48.451660	363.000000	
48.471110	356.000000	
48.490560	365.000000	
48.510010	335.000000	
48.529460	348.000000	
48.548910	337.000000	
48.568360	354.000000	
48.587810	337.000000	
48.607260	324.000000	
48.626710	367.000000	
48.646160	365.000000	
48.665610	321.000000	
48.685060	349.000000	
48.704510	336.000000	
48.723960	353.000000	
48.743410	366.000000	
48.762860	351.000000	
48.782310	377.000000	
48.801760	352.000000	
48.821210	335.000000	
48.840660	342.000000	
48.860110	348.000000	
48.879560	330.000000	
48.899010	335.000000	
48.918460	325.000000	
48.937910	361.000000	
48.957360	361.000000	
48.976810	340.000000	
48.996260	331.000000	
49.015710	377.000000	
49.035160	317.000000	
49.054610	353.000000	
49.074060	314.000000	
49.093510	375.000000	
49.112960	341.000000	
49.132410	364.000000	
49.151860	343.000000	
49.171310	353.000000	
49.190760	372.000000	
49.210210	347.000000	
49.229660	343.000000	
49.249110	339.000000	
49.268560	326.000000	
49.288010	350.000000	
49.307460	324.000000	
49.326910	331.000000	
49.346360	333.000000	
49.365810	347.000000	
49.385260	347.000000	
49.404710	351.000000	
49.424160	337.000000	
49.443610	358.000000	
49.463060	346.000000	
49.482510	364.000000	
49.501960	380.000000	
49.521410	330.000000	
49.540860	358.000000	
49.560310	355.000000	
49.579770	313.000000	
49.599210	398.000000	
49.618660	328.000000	
49.638110	306.000000	
49.657570	342.000000	
49.677010	343.000000	
49.696460	341.000000	
49.715920	316.000000	
49.735360	355.000000	
49.754810	349.000000	
49.774270	320.000000	
49.793720	361.000000	
49.813160	362.000000	
49.832610	370.000000	
49.852070	352.000000	
49.871520	320.000000	
49.890960	328.000000	
49.910420	365.000000	
49.929870	369.000000	
49.949310	357.000000	
49.968770	308.000000	
49.988220	351.000000	
50.007670	372.000000	
50.027110	400.000000	
50.046570	345.000000	
50.066020	387.000000	
50.085470	366.000000	
50.104920	375.000000	
50.124370	344.000000	
50.143820	404.000000	
50.163270	449.000000	
50.182720	430.000000	
50.202170	475.000000	
50.221620	452.000000	
50.241070	464.000000	
50.260520	482.000000	
50.279970	556.000000	
50.299420	610.000000	
50.318870	596.000000	
50.338320	627.000000	
50.357770	742.000000	
50.377220	799.000000	
50.396670	962.000000	
50.416120	1266.000000	
50.435570	1367.000000	
50.455020	1462.000000	
50.474470	1049.000000	
50.493920	745.000000	
50.513370	663.000000	
50.532820	679.000000	
50.552270	779.000000	
50.571720	894.000000	
50.591170	845.000000	
50.610620	648.000000	
50.630070	500.000000	
50.649520	449.000000	
50.668970	399.000000	
50.688420	375.000000	
50.707870	402.000000	
50.727320	375.000000	
50.746770	332.000000	
50.766220	385.000000	
50.785670	382.000000	
50.805120	352.000000	
50.824570	380.000000	
50.844020	365.000000	
50.863470	385.000000	
50.882920	330.000000	
50.902370	362.000000	
50.921820	362.000000	
50.941270	343.000000	
50.960720	348.000000	
50.980170	324.000000	
50.999620	342.000000	
51.019070	329.000000	
51.038520	340.000000	
51.057970	352.000000	
51.077420	376.000000	
51.096870	353.000000	
51.116320	344.000000	
51.135770	337.000000	
51.155220	342.000000	
51.174670	344.000000	
51.194120	333.000000	
51.213570	347.000000	
51.233020	368.000000	
51.252470	347.000000	
51.271920	338.000000	
51.291370	336.000000	
51.310830	318.000000	
51.330270	359.000000	
51.349720	335.000000	
51.369170	349.000000	
51.388630	349.000000	
51.408070	387.000000	
51.427520	342.000000	
51.446980	350.000000	
51.466430	352.000000	
51.485870	326.000000	
51.505330	344.000000	
51.524780	380.000000	
51.544220	334.000000	
51.563670	317.000000	
51.583130	373.000000	
51.602580	337.000000	
51.622020	343.000000	
51.641480	354.000000	
51.660930	331.000000	
51.680380	345.000000	
51.699830	360.000000	
51.719280	364.000000	
51.738730	366.000000	
51.758170	353.000000	
51.777630	347.000000	
51.797080	398.000000	
51.816530	385.000000	
51.835980	374.000000	
51.855430	336.000000	
51.874880	377.000000	
51.894330	393.000000	
51.913780	360.000000	
51.933230	422.000000	
51.952680	406.000000	
51.972130	438.000000	
51.991580	494.000000	
52.011030	462.000000	
52.030480	457.000000	
52.049930	446.000000	
52.069380	403.000000	
52.088830	433.000000	
52.108280	464.000000	
52.127730	504.000000	
52.147180	461.000000	
52.166630	505.000000	
52.186080	529.000000	
52.205530	525.000000	
52.224980	624.000000	
52.244430	663.000000	
52.263880	755.000000	
52.283330	712.000000	
52.302780	746.000000	
52.322230	586.000000	
52.341680	581.000000	
52.361130	718.000000	
52.380580	825.000000	
52.400030	1074.000000	
52.419480	1399.000000	
52.438930	1033.000000	
52.458380	705.000000	
52.477830	641.000000	
52.497280	584.000000	
52.516730	661.000000	
52.536180	813.000000	
52.555630	886.000000	
52.575080	906.000000	
52.594530	805.000000	
52.613980	814.000000	
52.633430	1075.000000	
52.652880	1192.000000	
52.672330	982.000000	
52.691780	680.000000	
52.711230	611.000000	
52.730680	619.000000	
52.750130	734.000000	
52.769580	866.000000	
52.789030	1021.000000	
52.808480	1249.000000	
52.827930	1463.000000	
52.847380	1221.000000	
52.866830	788.000000	
52.886280	575.000000	
52.905740	568.000000	
52.925180	582.000000	
52.944630	705.000000	
52.964080	828.000000	
52.983540	769.000000	
53.002980	593.000000	
53.022430	446.000000	
53.041890	432.000000	
53.061330	395.000000	
53.080780	384.000000	
53.100230	372.000000	
53.119690	397.000000	
53.139130	392.000000	
53.158580	351.000000	
53.178040	348.000000	
53.197490	403.000000	
53.216930	350.000000	
53.236390	345.000000	
53.255840	354.000000	
53.275280	382.000000	
53.294730	367.000000	
53.314190	348.000000	
53.333640	371.000000	
53.353080	333.000000	
53.372540	330.000000	
53.391990	342.000000	
53.411440	350.000000	
53.430890	330.000000	
53.450340	361.000000	
53.469790	339.000000	
53.489240	363.000000	
53.508690	357.000000	
53.528140	344.000000	
53.547590	339.000000	
53.567040	344.000000	
53.586490	341.000000	
53.605940	307.000000	
53.625390	342.000000	
53.644840	354.000000	
53.664290	374.000000	
53.683740	337.000000	
53.703190	360.000000	
53.722640	340.000000	
53.742090	349.000000	
53.761540	376.000000	
53.780990	331.000000	
53.800440	338.000000	
53.819890	328.000000	
53.839340	325.000000	
53.858790	320.000000	
53.878240	383.000000	
53.897690	347.000000	
53.917140	347.000000	
53.936590	326.000000	
53.956040	326.000000	
53.975490	329.000000	
53.994940	409.000000	
54.014390	364.000000	
54.033840	342.000000	
54.053290	379.000000	
54.072740	331.000000	
54.092190	341.000000	
54.111640	344.000000	
54.131090	368.000000	
54.150540	348.000000	
54.169990	364.000000	
54.189440	341.000000	
54.208890	364.000000	
54.228340	395.000000	
54.247790	357.000000	
54.267240	345.000000	
54.286690	358.000000	
54.306140	363.000000	
54.325590	350.000000	
54.345040	428.000000	
54.364490	429.000000	
54.383940	404.000000	
54.403390	464.000000	
54.422840	367.000000	
54.442290	415.000000	
54.461740	410.000000	
54.481190	461.000000	
54.500640	545.000000	
54.520090	623.000000	
54.539540	658.000000	
54.558990	718.000000	
54.578440	699.000000	
54.597890	594.000000	
54.617340	531.000000	
54.636800	595.000000	
54.656240	578.000000	
54.675690	613.000000	
54.695140	677.000000	
54.714600	747.000000	
54.734040	782.000000	
54.753490	823.000000	
54.772950	1029.000000	
54.792400	1326.000000	
54.811840	1395.000000	
54.831300	1051.000000	
54.850750	797.000000	
54.870190	676.000000	
54.889640	654.000000	
54.909100	675.000000	
54.928550	821.000000	
54.947990	897.000000	
54.967450	850.000000	
54.986900	627.000000	
55.006350	499.000000	
