;content of α-FAPbI3.uxd - (Diffrac Plus V4 file)
_FILEVERSION = 3
_SAMPLE = α-FAPbI3
_+SAMPLE
_USER = Lab Manager
_GONIOMETER_CODE = 21
_STAGE_CODE = 0
; Goniometer : D8 theta/theta, stage : Standard
_SAMPLE_CHANGER_CODE = 0
_ATTACHMENTS_CODE = 0
_GONIOMETER_RADIUS = 250
_FIXED_DIVSLIT = 1
_MONOCHROMATOR = 0
; Incident beam monochromator : None
_BETA_FILTER = N
_FIXED_ANTISLIT = 18
_ANALYZER_CODE = 0
; Received beam analyzer : None
_DATEMEASURED = 28-Jul-2026 08:52:16
_RUNTIME = 1636.062
_WL_UNIT = A
_WL1 = 1.5406
_WL2 = 1.54439
_WL3 = 1.39222
_WLRATIO = 0.5
_ANODE = Cu
_V4_INF_USER = Lab Manager
_V4_INF_SAMPLEID = α-FAPbI3
_V4_INF_CREATOR = DatToUxdConverter
_V4_INF_CREATOR_VERSION = 1.0.0.0

; Data for range 1
_DRIVE = COUPLED
_STEPTIME = 1
_STEPSIZE = 0.019449999999999967
_STEPMODE = C
_START = 4.2001
_THETA = 2.10005
_2THETA = 4.2001
_DETECTORSLIT = out
_TIMESTARTED = 0
_KV = 40
_MA = 40
_RANGE_WL = 1.5406
_3DPLANE = 0
_V4_PSD2THETA = 9999
_V4_PSDCHANNEL1 = 0
_V4_PSDAPERTURE = 2.745898
_V4_PSDTYPE = 5
_V4_PSDFIXED = 0
_V4_COUNTERS_MASK = 1
_V4_DRIVES_MASK = 0
_V4_ENCODERS_MASK = 0
_2THETACOUNTS = 1
; 2THETA	Cnt2_D1	
4.200100	5812.000000	
4.219550	5827.000000	
4.239000	5799.000000	
4.258450	5689.000000	
4.277900	5757.000000	
4.297350	5754.000000	
4.316800	5653.000000	
4.336250	5770.000000	
4.375150	5719.000000	
4.414050	5705.000000	
4.433500	5565.000000	
4.452950	5624.000000	
4.472400	5736.000000	
4.491850	5705.000000	
4.511300	5597.000000	
4.530750	5598.000000	
4.550200	5567.000000	
4.569650	5593.000000	
4.589100	5549.000000	
4.608550	5499.000000	
4.628000	5516.000000	
4.647450	5414.000000	
4.666900	5632.000000	
4.686350	5558.000000	
4.705800	5373.000000	
4.725250	5567.000000	
4.744700	5630.000000	
4.764150	5379.000000	
4.783600	5484.000000	
4.803050	5515.000000	
4.822500	5457.000000	
4.841950	5441.000000	
4.861400	5325.000000	
4.880850	5323.000000	
4.900300	5527.000000	
4.919750	5375.000000	
4.939200	5441.000000	
4.958650	5399.000000	
4.978100	5383.000000	
4.997550	5388.000000	
5.017010	5169.000000	
5.036450	5254.000000	
5.055910	5225.000000	
5.075360	5355.000000	
5.094810	5266.000000	
5.114260	5197.000000	
5.133710	5291.000000	
5.153160	5271.000000	
5.172610	5305.000000	
5.192060	5184.000000	
5.211510	5110.000000	
5.230960	5152.000000	
5.250410	5154.000000	
5.269860	5133.000000	
5.289310	4994.000000	
5.308760	5161.000000	
5.328210	5202.000000	
5.347660	5159.000000	
5.367110	5042.000000	
5.386560	5003.000000	
5.406010	4984.000000	
5.425460	5122.000000	
5.444910	4939.000000	
5.464360	5018.000000	
5.483810	4863.000000	
5.503260	5042.000000	
5.522710	4939.000000	
5.542160	5037.000000	
5.561610	4894.000000	
5.581060	4981.000000	
5.600510	5007.000000	
5.619960	4888.000000	
5.639410	4965.000000	
5.658860	4975.000000	
5.678310	4810.000000	
5.697760	4945.000000	
5.717210	4880.000000	
5.736660	4892.000000	
5.756110	4808.000000	
5.775560	4909.000000	
5.795010	4937.000000	
5.814460	4787.000000	
5.833910	4874.000000	
5.853360	4913.000000	
5.872810	4677.000000	
5.892260	4805.000000	
5.911710	4634.000000	
5.931160	4779.000000	
5.950610	4753.000000	
5.970060	4687.000000	
5.989510	4596.000000	
6.008960	4697.000000	
6.028410	4672.000000	
6.047860	4595.000000	
6.067310	4645.000000	
6.086760	4518.000000	
6.106210	4396.000000	
6.125660	4499.000000	
6.145110	4567.000000	
6.164560	4538.000000	
6.184010	4611.000000	
6.203460	4599.000000	
6.222910	4569.000000	
6.242360	4384.000000	
6.261810	4522.000000	
6.281260	4442.000000	
6.300710	4361.000000	
6.320160	4409.000000	
6.339610	4456.000000	
6.359060	4407.000000	
6.378510	4486.000000	
6.397960	4317.000000	
6.417410	4355.000000	
6.436860	4403.000000	
6.456310	4309.000000	
6.475760	4351.000000	
6.495210	4262.000000	
6.514660	4413.000000	
6.534110	4443.000000	
6.553560	4288.000000	
6.573010	4261.000000	
6.592460	4298.000000	
6.611910	4268.000000	
6.631360	4271.000000	
6.650810	4119.000000	
6.670260	4300.000000	
6.689710	4202.000000	
6.709160	4082.000000	
6.728610	4086.000000	
6.748070	4211.000000	
6.767520	4136.000000	
6.786970	4199.000000	
6.806420	4049.000000	
6.825870	4033.000000	
6.845320	4024.000000	
6.864770	4027.000000	
6.884220	4047.000000	
6.903670	4035.000000	
6.923120	3996.000000	
6.942570	3921.000000	
6.962020	3995.000000	
6.981470	4050.000000	
7.000920	4058.000000	
7.020370	3975.000000	
7.039820	4061.000000	
7.059270	3976.000000	
7.078720	3863.000000	
7.098170	3864.000000	
7.117620	3911.000000	
7.137070	3898.000000	
7.156520	4020.000000	
7.175970	3891.000000	
7.195420	3862.000000	
7.214870	3853.000000	
7.234320	3778.000000	
7.253770	3765.000000	
7.273220	3859.000000	
7.292670	3899.000000	
7.312120	3773.000000	
7.331570	3692.000000	
7.351020	3674.000000	
7.370470	3764.000000	
7.389920	3777.000000	
7.409370	3657.000000	
7.428820	3665.000000	
7.448270	3705.000000	
7.467720	3629.000000	
7.487170	3719.000000	
7.506620	3719.000000	
7.526070	3584.000000	
7.545520	3620.000000	
7.564970	3719.000000	
7.584420	3600.000000	
7.603870	3578.000000	
7.623320	3641.000000	
7.642770	3537.000000	
7.662220	3588.000000	
7.681670	3585.000000	
7.701120	3581.000000	
7.720570	3466.000000	
7.740020	3395.000000	
7.759470	3488.000000	
7.778920	3558.000000	
7.798370	3482.000000	
7.817820	3431.000000	
7.837270	3432.000000	
7.856720	3472.000000	
7.876170	3379.000000	
7.895620	3443.000000	
7.915070	3358.000000	
7.934520	3373.000000	
7.953970	3371.000000	
7.973420	3400.000000	
7.992870	3247.000000	
8.012320	3339.000000	
8.031770	3340.000000	
8.051220	3281.000000	
8.070670	3155.000000	
8.090120	3202.000000	
8.109570	3330.000000	
8.129020	3229.000000	
8.148470	3146.000000	
8.167920	3211.000000	
8.187370	3283.000000	
8.206820	3241.000000	
8.226270	3142.000000	
8.245720	3130.000000	
8.265170	3202.000000	
8.284620	3109.000000	
8.304070	3165.000000	
8.323520	3226.000000	
8.342970	3239.000000	
8.362430	3115.000000	
8.381880	3189.000000	
8.401330	3185.000000	
8.420770	3106.000000	
8.440220	3091.000000	
8.459680	3048.000000	
8.479130	3081.000000	
8.498580	3026.000000	
8.518030	2902.000000	
8.537480	3059.000000	
8.556930	2896.000000	
8.576380	3037.000000	
8.595830	3096.000000	
8.615280	2851.000000	
8.634730	2913.000000	
8.654180	2925.000000	
8.673630	2912.000000	
8.693080	2922.000000	
8.712530	2889.000000	
8.731980	2935.000000	
8.751430	2840.000000	
8.770880	2926.000000	
8.790330	2873.000000	
8.809780	2727.000000	
8.829230	2799.000000	
8.848680	2821.000000	
8.868130	2869.000000	
8.887580	2864.000000	
8.907030	2718.000000	
8.926480	2817.000000	
8.945930	2783.000000	
8.965380	2805.000000	
8.984830	2746.000000	
9.004280	2706.000000	
9.023730	2667.000000	
9.043180	2780.000000	
9.062630	2684.000000	
9.082080	2637.000000	
9.101530	2740.000000	
9.120980	2633.000000	
9.140430	2534.000000	
9.159880	2655.000000	
9.179330	2701.000000	
9.198780	2655.000000	
9.218230	2567.000000	
9.237680	2546.000000	
9.257130	2581.000000	
9.276580	2527.000000	
9.296030	2599.000000	
9.315480	2543.000000	
9.334930	2545.000000	
9.354380	2595.000000	
9.373830	2670.000000	
9.393280	2524.000000	
9.412730	2549.000000	
9.432180	2547.000000	
9.451630	2480.000000	
9.471080	2616.000000	
9.490530	2574.000000	
9.509980	2514.000000	
9.529430	2521.000000	
9.548880	2456.000000	
9.568330	2426.000000	
9.587780	2407.000000	
9.607230	2346.000000	
9.626680	2373.000000	
9.646130	2425.000000	
9.665580	2451.000000	
9.685030	2446.000000	
9.704480	2327.000000	
9.723930	2262.000000	
9.743380	2421.000000	
9.762830	2394.000000	
9.782280	2389.000000	
9.801730	2298.000000	
9.821180	2248.000000	
9.840630	2239.000000	
9.860080	2384.000000	
9.879530	2341.000000	
9.898980	2323.000000	
9.918430	2318.000000	
9.937880	2303.000000	
9.957330	2291.000000	
9.976780	2220.000000	
9.996230	2292.000000	
10.015680	2180.000000	
10.035130	2228.000000	
10.054580	2247.000000	
10.074030	2271.000000	
10.093490	2216.000000	
10.112940	2246.000000	
10.132390	2168.000000	
10.151840	2119.000000	
10.171290	2134.000000	
10.190740	2167.000000	
10.210190	2202.000000	
10.229640	2053.000000	
10.249090	2161.000000	
10.268540	2135.000000	
10.287990	2162.000000	
10.307440	2113.000000	
10.326890	2164.000000	
10.346340	2156.000000	
10.365790	2085.000000	
10.385240	2033.000000	
10.404690	2070.000000	
10.424140	2052.000000	
10.443590	2097.000000	
10.463040	2099.000000	
10.482490	2068.000000	
10.501940	2020.000000	
10.521390	2079.000000	
10.540840	2019.000000	
10.560290	2084.000000	
10.579740	2031.000000	
10.599190	1988.000000	
10.618640	2014.000000	
10.638090	2074.000000	
10.657540	1992.000000	
10.676990	2032.000000	
10.696440	1980.000000	
10.715890	2045.000000	
10.735340	1987.000000	
10.754790	1995.000000	
10.774240	2010.000000	
10.793690	1946.000000	
10.813140	1956.000000	
10.832590	2012.000000	
10.852040	1967.000000	
10.871490	1945.000000	
10.890940	1921.000000	
10.910390	1965.000000	
10.929840	1949.000000	
10.949290	1973.000000	
10.968740	1916.000000	
10.988190	1897.000000	
11.007640	1906.000000	
11.027090	1863.000000	
11.046540	1829.000000	
11.065990	1857.000000	
11.085440	1877.000000	
11.104890	1892.000000	
11.124340	1884.000000	
11.143790	1897.000000	
11.163240	1826.000000	
11.182690	1864.000000	
11.202140	1775.000000	
11.221590	1844.000000	
11.241040	1832.000000	
11.260490	1856.000000	
11.279940	1795.000000	
11.299390	1771.000000	
11.318840	1778.000000	
11.338290	1732.000000	
11.357740	1828.000000	
11.377190	1777.000000	
11.396640	1786.000000	
11.416090	1766.000000	
11.435540	1832.000000	
11.454990	1748.000000	
11.474440	1803.000000	
11.493890	1747.000000	
11.513340	1774.000000	
11.532790	1853.000000	
11.552240	1774.000000	
11.571690	1770.000000	
11.591140	1772.000000	
11.610590	1758.000000	
11.630040	1712.000000	
11.649490	1726.000000	
11.668940	1644.000000	
11.688390	1716.000000	
11.707840	1707.000000	
11.727300	1734.000000	
11.746740	1718.000000	
11.766190	1719.000000	
11.785640	1604.000000	
11.805090	1704.000000	
11.824550	1635.000000	
11.844000	1703.000000	
11.863450	1697.000000	
11.882900	1629.000000	
11.902350	1691.000000	
11.921800	1666.000000	
11.941250	1667.000000	
11.960700	1676.000000	
11.980150	1734.000000	
11.999600	1672.000000	
12.019050	1601.000000	
12.038500	1597.000000	
12.057950	1688.000000	
12.077400	1602.000000	
12.096850	1641.000000	
12.116300	1686.000000	
12.135750	1640.000000	
12.155200	1630.000000	
12.174650	1595.000000	
12.194100	1637.000000	
12.213550	1552.000000	
12.233000	1605.000000	
12.252450	1547.000000	
12.271900	1644.000000	
12.291350	1531.000000	
12.310800	1641.000000	
12.330250	1663.000000	
12.349700	1662.000000	
12.369150	1575.000000	
12.388600	1576.000000	
12.408050	1660.000000	
12.427500	1625.000000	
12.446950	1627.000000	
12.466400	1661.000000	
12.485850	1707.000000	
12.505300	1792.000000	
12.524750	1698.000000	
12.544200	1794.000000	
12.563650	1867.000000	
12.583100	1804.000000	
12.602550	1706.000000	
12.622000	1716.000000	
12.641450	1558.000000	
12.660900	1510.000000	
12.680350	1531.000000	
12.699800	1557.000000	
12.719250	1559.000000	
12.738700	1549.000000	
12.758150	1599.000000	
12.777600	1480.000000	
12.797050	1503.000000	
12.816500	1481.000000	
12.835950	1620.000000	
12.855400	1489.000000	
12.874850	1528.000000	
12.894300	1475.000000	
12.913750	1504.000000	
12.933200	1492.000000	
12.952650	1486.000000	
12.972100	1431.000000	
12.991550	1470.000000	
13.011000	1502.000000	
13.030450	1416.000000	
13.049900	1522.000000	
13.069350	1478.000000	
13.088800	1479.000000	
13.108250	1463.000000	
13.127700	1505.000000	
13.147150	1450.000000	
13.166600	1488.000000	
13.186050	1458.000000	
13.205500	1514.000000	
13.224950	1449.000000	
13.244400	1454.000000	
13.263850	1580.000000	
13.283300	1558.000000	
13.302750	1531.000000	
13.322200	1634.000000	
13.341650	1525.000000	
13.361100	1638.000000	
13.380550	1657.000000	
13.400000	1726.000000	
13.419450	1798.000000	
13.438900	1827.000000	
13.458360	2040.000000	
13.477810	2234.000000	
13.497260	2393.000000	
13.516710	2531.000000	
13.536150	2874.000000	
13.555610	3122.000000	
13.575060	3345.000000	
13.594510	3661.000000	
13.613960	3912.000000	
13.633410	4233.000000	
13.652860	4758.000000	
13.672310	5535.000000	
13.691760	6244.000000	
13.711210	7145.000000	
13.730660	8091.000000	
13.750110	9237.000000	
13.769560	11066.000000	
13.789010	13186.000000	
13.808460	15935.000000	
13.827910	19345.000000	
13.847360	23226.000000	
13.866810	28031.000000	
13.886260	34679.000000	
13.905710	44255.000000	
13.925160	58324.000000	
13.944610	74390.000000	
13.964060	94450.000000	
13.983510	111693.000000	
14.002960	116833.000000	
14.022410	99803.000000	
14.041860	82005.000000	
14.061310	50152.000000	
14.080760	26886.000000	
14.100210	13818.000000	
14.119660	6002.000000	
14.139110	4707.000000	
14.158560	4042.000000	
14.178010	3693.000000	
14.197460	3366.000000	
14.216910	3119.000000	
14.236360	2946.000000	
14.255810	2634.000000	
14.275260	2452.000000	
14.294710	2268.000000	
14.314160	2125.000000	
14.333610	2061.000000	
14.353060	2003.000000	
14.372510	1942.000000	
14.391960	1910.000000	
14.411410	1969.000000	
14.430860	1929.000000	
14.450310	2043.000000	
14.469760	1903.000000	
14.489210	1801.000000	
14.508660	1791.000000	
14.528110	1838.000000	
14.547560	1820.000000	
14.567010	1813.000000	
14.586460	1799.000000	
14.605910	1791.000000	
14.625360	1795.000000	
14.644810	1775.000000	
14.664260	1704.000000	
14.683710	1695.000000	
14.703160	1638.000000	
14.722610	1683.000000	
14.742060	1706.000000	
14.761510	1711.000000	
14.780960	1676.000000	
14.800410	1657.000000	
14.819860	1682.000000	
14.839310	1644.000000	
14.858760	1614.000000	
14.878210	1641.000000	
14.897660	1638.000000	
14.917110	1641.000000	
14.936560	1623.000000	
14.956010	1580.000000	
14.975460	1568.000000	
14.994910	1540.000000	
15.014360	1534.000000	
15.033810	1627.000000	
15.053260	1605.000000	
15.072710	1600.000000	
15.092160	1549.000000	
15.111610	1498.000000	
15.131060	1525.000000	
15.150510	1545.000000	
15.169960	1618.000000	
15.189420	1550.000000	
15.208870	1520.000000	
15.228310	1470.000000	
15.247770	1461.000000	
15.267210	1531.000000	
15.286670	1492.000000	
15.306120	1469.000000	
15.325570	1494.000000	
15.345020	1514.000000	
15.364470	1461.000000	
15.383920	1453.000000	
15.403370	1508.000000	
15.422820	1434.000000	
15.442270	1515.000000	
15.461720	1478.000000	
15.481170	1389.000000	
15.500620	1403.000000	
15.520070	1432.000000	
15.539520	1461.000000	
15.558970	1417.000000	
15.578420	1401.000000	
15.597870	1376.000000	
15.617320	1376.000000	
15.636770	1429.000000	
15.656220	1409.000000	
15.675670	1370.000000	
15.695120	1350.000000	
15.714570	1402.000000	
15.734020	1328.000000	
15.753470	1357.000000	
15.772920	1371.000000	
15.792370	1353.000000	
15.811820	1407.000000	
15.831270	1339.000000	
15.850720	1312.000000	
15.870170	1367.000000	
15.889620	1309.000000	
15.909070	1433.000000	
15.928520	1290.000000	
15.947970	1305.000000	
15.967420	1318.000000	
15.986870	1353.000000	
16.006320	1394.000000	
16.025770	1336.000000	
16.045220	1268.000000	
16.064670	1241.000000	
16.084120	1368.000000	
16.103570	1335.000000	
16.123020	1293.000000	
16.142470	1300.000000	
16.161920	1318.000000	
16.181370	1222.000000	
16.200820	1287.000000	
16.220270	1238.000000	
16.239720	1223.000000	
16.259170	1349.000000	
16.278620	1264.000000	
16.298070	1257.000000	
16.317520	1263.000000	
16.336970	1291.000000	
16.356420	1328.000000	
16.375870	1215.000000	
16.395320	1224.000000	
16.414770	1255.000000	
16.434220	1285.000000	
16.453670	1307.000000	
16.473120	1256.000000	
16.492570	1316.000000	
16.512020	1242.000000	
16.531470	1283.000000	
16.550920	1274.000000	
16.570370	1233.000000	
16.589820	1182.000000	
16.609270	1250.000000	
16.628720	1231.000000	
16.648170	1250.000000	
16.667620	1217.000000	
16.687070	1247.000000	
16.706530	1223.000000	
16.725970	1177.000000	
16.745420	1168.000000	
16.764870	1179.000000	
16.784320	1190.000000	
16.803780	1255.000000	
16.823220	1183.000000	
16.842680	1233.000000	
16.862120	1203.000000	
16.881580	1164.000000	
16.901030	1145.000000	
16.920480	1204.000000	
16.939930	1193.000000	
16.959380	1215.000000	
16.978830	1227.000000	
16.998270	1231.000000	
17.017730	1157.000000	
17.037180	1139.000000	
17.056630	1142.000000	
17.076080	1210.000000	
17.095530	1171.000000	
17.114980	1183.000000	
17.134430	1198.000000	
17.153880	1174.000000	
17.173330	1173.000000	
17.192780	1177.000000	
17.212230	1158.000000	
17.231680	1133.000000	
17.251130	1154.000000	
17.270580	1173.000000	
17.290030	1151.000000	
17.309480	1140.000000	
17.328930	1085.000000	
17.348380	1182.000000	
17.367830	1173.000000	
17.387280	1174.000000	
17.406730	1152.000000	
17.426180	1156.000000	
17.445630	1130.000000	
17.465080	1119.000000	
17.484530	1185.000000	
17.503980	1105.000000	
17.523430	1121.000000	
17.542880	1212.000000	
17.562330	1189.000000	
17.581780	1145.000000	
17.601230	1183.000000	
17.620680	1185.000000	
17.640130	1160.000000	
17.659580	1196.000000	
17.679030	1138.000000	
17.698480	1138.000000	
17.717930	1163.000000	
17.737380	1145.000000	
17.756830	1076.000000	
17.776280	1143.000000	
17.795730	1196.000000	
17.815180	1127.000000	
17.834630	1152.000000	
17.854080	1143.000000	
17.873530	1110.000000	
17.892980	1213.000000	
17.912430	1107.000000	
17.931880	1140.000000	
17.951330	1198.000000	
17.970780	1219.000000	
17.990230	1177.000000	
18.009680	1151.000000	
18.029130	1222.000000	
18.048580	1210.000000	
18.068030	1201.000000	
18.087480	1272.000000	
18.106930	1316.000000	
18.126380	1298.000000	
18.145830	1241.000000	
18.165280	1298.000000	
18.184730	1182.000000	
18.204180	1104.000000	
18.223630	1099.000000	
18.243080	1157.000000	
18.262530	1112.000000	
18.281980	1140.000000	
18.301430	1089.000000	
18.320880	1182.000000	
18.340330	1145.000000	
18.359780	1174.000000	
18.379230	1128.000000	
18.398680	1187.000000	
18.418130	1198.000000	
18.437590	1128.000000	
18.457030	1185.000000	
18.476490	1127.000000	
18.495930	1132.000000	
18.515380	1135.000000	
18.534840	1165.000000	
18.554280	1117.000000	
18.573740	1143.000000	
18.593180	1117.000000	
18.612640	1147.000000	
18.632090	1106.000000	
18.651540	1151.000000	
18.670990	1114.000000	
18.690440	1136.000000	
18.709890	1063.000000	
18.729340	1167.000000	
18.748790	1187.000000	
18.768240	1100.000000	
18.787690	1118.000000	
18.807140	1113.000000	
18.826590	1114.000000	
18.846040	1174.000000	
18.865490	1189.000000	
18.884940	1107.000000	
18.904390	1150.000000	
18.923840	1128.000000	
18.943290	1154.000000	
18.962740	1157.000000	
18.982190	1122.000000	
19.001640	1125.000000	
19.021090	1149.000000	
19.040540	1219.000000	
19.059990	1186.000000	
19.079440	1147.000000	
19.098890	1142.000000	
19.118340	1089.000000	
19.137790	1105.000000	
19.157240	1162.000000	
19.176690	1089.000000	
19.196140	1147.000000	
19.215590	1250.000000	
19.235040	1156.000000	
19.254490	1166.000000	
19.273940	1195.000000	
19.293390	1226.000000	
19.312840	1167.000000	
19.332290	1174.000000	
19.351740	1191.000000	
19.371190	1234.000000	
19.390640	1193.000000	
19.410090	1222.000000	
19.429540	1294.000000	
19.448990	1353.000000	
19.468440	1404.000000	
19.487890	1508.000000	
19.507340	1412.000000	
19.526790	1408.000000	
19.546240	1468.000000	
19.565690	1486.000000	
19.585140	1465.000000	
19.604590	1566.000000	
19.624040	1544.000000	
19.643490	1459.000000	
19.662940	1550.000000	
19.682390	1540.000000	
19.701840	1582.000000	
19.721290	1595.000000	
19.740740	1591.000000	
19.760190	1648.000000	
19.779640	1771.000000	
19.799090	1850.000000	
19.818540	1962.000000	
19.837990	2095.000000	
19.857440	2297.000000	
19.876890	2503.000000	
19.896340	2877.000000	
19.915790	3290.000000	
19.935240	3763.000000	
19.954690	4234.000000	
19.974140	4952.000000	
19.993590	5982.000000	
20.013040	7265.000000	
20.032490	9396.000000	
20.051940	12162.000000	
20.071390	15715.000000	
20.090840	21167.000000	
20.110290	29846.000000	
20.129740	43359.000000	
20.149190	56686.000000	
20.168650	66068.000000	
20.188090	63905.000000	
20.207550	56776.000000	
20.226990	44387.000000	
20.246450	27928.000000	
20.265900	17680.000000	
20.285350	10268.000000	
20.304800	5114.000000	
20.324240	3338.000000	
20.343700	2906.000000	
20.363150	2601.000000	
20.382600	2260.000000	
20.402050	2193.000000	
20.421500	2227.000000	
20.440950	1935.000000	
20.460400	1786.000000	
20.479850	1706.000000	
20.499300	1620.000000	
20.518750	1584.000000	
20.538200	1506.000000	
20.557650	1426.000000	
20.577100	1436.000000	
20.596550	1428.000000	
20.616000	1473.000000	
20.635450	1419.000000	
20.654900	1411.000000	
20.674350	1445.000000	
20.693800	1454.000000	
20.713250	1303.000000	
20.732700	1366.000000	
20.752150	1340.000000	
20.771600	1355.000000	
20.791050	1336.000000	
20.810500	1282.000000	
20.829950	1379.000000	
20.849400	1319.000000	
20.868850	1386.000000	
20.888300	1272.000000	
20.907750	1390.000000	
20.927200	1220.000000	
20.946650	1342.000000	
20.966100	1290.000000	
20.985550	1353.000000	
21.005000	1304.000000	
21.024450	1306.000000	
21.043900	1332.000000	
21.063350	1321.000000	
21.082800	1362.000000	
21.102250	1273.000000	
21.121700	1318.000000	
21.141150	1314.000000	
21.160600	1337.000000	
21.180050	1295.000000	
21.199500	1274.000000	
21.218950	1228.000000	
21.238400	1281.000000	
21.257850	1289.000000	
21.277300	1226.000000	
21.296750	1294.000000	
21.316200	1310.000000	
21.335650	1309.000000	
21.355100	1218.000000	
21.374550	1237.000000	
21.394000	1259.000000	
21.413450	1290.000000	
21.432900	1270.000000	
21.452350	1234.000000	
21.471800	1284.000000	
21.491250	1263.000000	
21.510700	1307.000000	
21.530150	1296.000000	
21.549600	1247.000000	
21.569050	1284.000000	
21.588500	1280.000000	
21.607950	1258.000000	
21.627400	1240.000000	
21.646850	1295.000000	
21.666300	1212.000000	
21.685750	1254.000000	
21.705200	1249.000000	
21.724650	1262.000000	
21.744100	1243.000000	
21.763550	1255.000000	
21.783000	1313.000000	
21.802460	1256.000000	
21.821900	1215.000000	
21.841350	1235.000000	
21.860800	1169.000000	
21.880250	1219.000000	
21.899710	1197.000000	
21.919150	1240.000000	
21.938610	1204.000000	
21.958050	1196.000000	
21.977510	1268.000000	
21.996960	1226.000000	
22.016410	1254.000000	
22.035860	1234.000000	
22.055310	1199.000000	
22.074760	1194.000000	
22.094210	1242.000000	
22.113660	1215.000000	
22.133110	1313.000000	
22.152560	1295.000000	
22.172010	1231.000000	
22.191460	1301.000000	
22.210910	1271.000000	
22.230360	1240.000000	
22.249810	1156.000000	
22.269260	1294.000000	
22.288710	1071.000000	
22.308160	1186.000000	
22.327610	1157.000000	
22.347060	1160.000000	
22.366510	1238.000000	
22.385960	1284.000000	
22.405410	1277.000000	
22.424860	1197.000000	
22.444310	1245.000000	
22.463760	1227.000000	
22.483210	1199.000000	
22.502660	1229.000000	
22.522110	1176.000000	
22.541560	1248.000000	
22.561010	1261.000000	
22.580460	1265.000000	
22.599910	1149.000000	
22.619360	1212.000000	
22.638810	1243.000000	
22.658260	1159.000000	
22.677710	1193.000000	
22.697160	1197.000000	
22.716610	1147.000000	
22.736060	1222.000000	
22.755510	1229.000000	
22.774960	1197.000000	
22.794410	1213.000000	
22.813860	1196.000000	
22.833310	1198.000000	
22.852760	1174.000000	
22.872210	1174.000000	
22.891660	1170.000000	
22.911110	1252.000000	
22.930560	1235.000000	
22.950010	1220.000000	
22.969460	1234.000000	
22.988910	1178.000000	
23.008360	1154.000000	
23.027810	1137.000000	
23.047260	1130.000000	
23.066710	1139.000000	
23.086160	1220.000000	
23.105610	1204.000000	
23.125060	1157.000000	
23.144510	1214.000000	
23.163960	1213.000000	
23.183410	1221.000000	
23.202860	1244.000000	
23.222310	1181.000000	
23.241760	1208.000000	
23.261210	1201.000000	
23.280660	1193.000000	
23.300110	1228.000000	
23.319560	1149.000000	
23.339010	1218.000000	
23.358460	1128.000000	
23.377910	1238.000000	
23.397360	1199.000000	
23.416810	1137.000000	
23.436260	1236.000000	
23.455710	1237.000000	
23.475160	1283.000000	
23.494610	1243.000000	
23.514060	1218.000000	
23.533520	1115.000000	
23.552960	1200.000000	
23.572420	1117.000000	
23.591860	1166.000000	
23.611310	1200.000000	
23.630770	1195.000000	
23.650210	1159.000000	
23.669670	1234.000000	
23.689110	1120.000000	
23.708570	1217.000000	
23.728020	1292.000000	
23.747470	1217.000000	
23.766920	1272.000000	
23.786370	1119.000000	
23.805820	1176.000000	
23.825270	1255.000000	
23.844720	1185.000000	
23.864170	1210.000000	
23.883620	1217.000000	
23.903070	1177.000000	
23.922520	1274.000000	
23.941970	1178.000000	
23.961420	1247.000000	
23.980870	1183.000000	
24.000320	1219.000000	
24.019770	1210.000000	
24.039220	1236.000000	
24.058670	1214.000000	
24.078120	1143.000000	
24.097570	1232.000000	
24.117020	1252.000000	
24.136470	1234.000000	
24.155920	1165.000000	
24.175370	1177.000000	
24.194820	1159.000000	
24.214270	1213.000000	
24.233720	1203.000000	
24.253170	1209.000000	
24.272620	1276.000000	
24.292070	1248.000000	
24.311520	1221.000000	
24.330970	1217.000000	
24.350420	1247.000000	
24.369870	1255.000000	
24.389320	1280.000000	
24.408770	1277.000000	
24.428220	1167.000000	
24.447670	1238.000000	
24.467120	1173.000000	
24.486570	1237.000000	
24.506020	1250.000000	
24.525470	1339.000000	
24.544920	1251.000000	
24.564370	1304.000000	
24.583820	1248.000000	
24.603270	1194.000000	
24.622720	1211.000000	
24.642170	1240.000000	
24.661620	1210.000000	
24.681070	1279.000000	
24.700520	1391.000000	
24.719970	1342.000000	
24.739420	1318.000000	
24.758870	1416.000000	
24.778320	1471.000000	
24.797770	1562.000000	
24.817220	1657.000000	
24.836670	1813.000000	
24.856120	2069.000000	
24.875570	2345.000000	
24.895020	2752.000000	
24.914470	3364.000000	
24.933920	4067.000000	
24.953370	4033.000000	
24.972820	3820.000000	
24.992270	3404.000000	
25.011720	2934.000000	
25.031170	2416.000000	
25.050620	2010.000000	
25.070070	1706.000000	
25.089520	1487.000000	
25.108970	1309.000000	
25.128420	1249.000000	
25.147870	1264.000000	
25.167320	1277.000000	
25.186770	1308.000000	
25.206220	1291.000000	
25.225670	1288.000000	
25.245120	1271.000000	
25.264580	1267.000000	
25.284020	1291.000000	
25.303480	1266.000000	
25.322920	1182.000000	
25.342380	1292.000000	
25.361830	1225.000000	
25.381280	1245.000000	
25.400730	1289.000000	
25.420170	1294.000000	
25.439630	1288.000000	
25.459080	1216.000000	
25.478530	1244.000000	
25.497980	1250.000000	
25.517430	1281.000000	
25.536880	1327.000000	
25.556330	1181.000000	
25.575780	1264.000000	
25.595230	1234.000000	
25.614680	1272.000000	
25.634130	1306.000000	
25.653580	1232.000000	
25.673030	1273.000000	
25.692480	1314.000000	
25.711930	1258.000000	
25.731380	1355.000000	
25.750830	1268.000000	
25.770280	1258.000000	
25.789730	1234.000000	
25.809180	1322.000000	
25.828630	1346.000000	
25.848080	1343.000000	
25.867530	1286.000000	
25.886980	1229.000000	
25.906430	1335.000000	
25.925880	1347.000000	
25.945330	1274.000000	
25.964780	1313.000000	
25.984230	1335.000000	
26.003680	1417.000000	
26.023130	1404.000000	
26.042580	1422.000000	
26.062030	1447.000000	
26.081480	1579.000000	
26.100930	1585.000000	
26.120380	1597.000000	
26.139830	1491.000000	
26.159280	1415.000000	
26.178730	1352.000000	
26.198180	1313.000000	
26.217630	1288.000000	
26.237080	1309.000000	
26.256530	1355.000000	
26.275980	1340.000000	
26.295430	1314.000000	
26.314880	1305.000000	
26.334330	1314.000000	
26.353780	1351.000000	
26.373230	1322.000000	
26.392680	1337.000000	
26.412130	1341.000000	
26.431580	1336.000000	
26.451030	1301.000000	
26.470480	1391.000000	
26.489930	1350.000000	
26.509380	1284.000000	
26.528830	1329.000000	
26.548280	1382.000000	
26.567730	1355.000000	
26.587180	1365.000000	
26.606630	1303.000000	
26.626080	1332.000000	
26.645530	1346.000000	
26.664980	1353.000000	
26.684430	1408.000000	
26.703880	1368.000000	
26.723330	1328.000000	
26.742780	1334.000000	
26.762230	1326.000000	
26.781680	1349.000000	
26.801130	1365.000000	
26.820580	1337.000000	
26.840030	1299.000000	
26.859480	1353.000000	
26.878930	1348.000000	
26.898390	1403.000000	
26.917830	1404.000000	
26.937280	1397.000000	
26.956730	1347.000000	
26.976180	1345.000000	
26.995640	1374.000000	
27.015080	1414.000000	
27.034540	1347.000000	
27.053980	1329.000000	
27.073440	1360.000000	
27.092890	1361.000000	
27.112340	1392.000000	
27.131790	1374.000000	
27.151240	1319.000000	
27.170690	1402.000000	
27.190140	1365.000000	
27.209590	1352.000000	
27.229040	1360.000000	
27.248490	1307.000000	
27.267940	1329.000000	
27.287390	1331.000000	
27.306840	1409.000000	
27.326290	1405.000000	
27.345740	1447.000000	
27.365190	1437.000000	
27.384640	1341.000000	
27.404090	1342.000000	
27.423540	1421.000000	
27.442990	1405.000000	
27.462440	1350.000000	
27.481890	1417.000000	
27.501340	1432.000000	
27.520790	1527.000000	
27.540240	1358.000000	
27.559690	1457.000000	
27.579140	1439.000000	
27.598590	1363.000000	
27.618040	1392.000000	
27.637490	1421.000000	
27.656940	1488.000000	
27.676390	1400.000000	
27.695840	1438.000000	
27.715290	1457.000000	
27.734740	1446.000000	
27.754190	1395.000000	
27.773640	1447.000000	
27.793090	1485.000000	
27.812540	1394.000000	
27.831990	1442.000000	
27.851440	1415.000000	
27.870890	1484.000000	
27.890340	1491.000000	
27.909790	1545.000000	
27.929240	1550.000000	
27.948690	1536.000000	
27.968140	1619.000000	
27.987590	1649.000000	
28.007040	1783.000000	
28.026490	1767.000000	
28.045940	1710.000000	
28.065390	1800.000000	
28.084840	1719.000000	
28.104290	1786.000000	
28.123740	1753.000000	
28.143190	1870.000000	
28.162640	1846.000000	
28.182090	1791.000000	
28.201540	1858.000000	
28.220990	1856.000000	
28.240440	1973.000000	
28.259890	1793.000000	
28.279340	1858.000000	
28.298790	1881.000000	
28.318240	1888.000000	
28.337690	1862.000000	
28.357140	1991.000000	
28.376590	1904.000000	
28.396040	1950.000000	
28.415490	1894.000000	
28.434940	1952.000000	
28.454390	1976.000000	
28.473840	1912.000000	
28.493290	1936.000000	
28.512740	2008.000000	
28.532190	2039.000000	
28.551640	1999.000000	
28.571090	2064.000000	
28.590540	2202.000000	
28.609990	2318.000000	
28.629450	2357.000000	
28.648890	2385.000000	
28.668350	2586.000000	
28.687790	2690.000000	
28.707250	3036.000000	
28.726700	3246.000000	
28.746140	3523.000000	
28.765600	3956.000000	
28.785040	4559.000000	
28.804500	4879.000000	
28.823950	5539.000000	
28.843400	6950.000000	
28.862850	9094.000000	
28.882300	11138.000000	
28.901750	14555.000000	
28.921200	19075.000000	
28.940650	23519.000000	
28.960100	35198.000000	
28.979550	48972.000000	
28.999000	73585.000000	
29.018450	96820.000000	
29.037900	94260.000000	
29.057350	85113.000000	
29.076800	68717.000000	
29.096250	54321.000000	
29.115700	44027.000000	
29.135150	35047.000000	
29.154600	19297.000000	
29.174050	8102.000000	
29.193500	5372.000000	
29.212950	4529.000000	
29.232400	4154.000000	
29.251850	3909.000000	
29.271300	3550.000000	
29.290750	3488.000000	
29.310200	3285.000000	
29.329650	3086.000000	
29.349100	2960.000000	
29.368550	2838.000000	
29.388000	2596.000000	
29.407450	2439.000000	
29.426900	2332.000000	
29.446350	2321.000000	
29.465800	2306.000000	
29.485250	2239.000000	
29.504700	2101.000000	
29.524150	2134.000000	
29.543600	2154.000000	
29.563050	2142.000000	
29.582500	2088.000000	
29.601950	2089.000000	
29.621400	2128.000000	
29.640850	1983.000000	
29.660300	2149.000000	
29.679750	2031.000000	
29.699200	1975.000000	
29.718650	2040.000000	
29.738100	1998.000000	
29.757550	2032.000000	
29.777000	1911.000000	
29.796450	1979.000000	
29.815900	1927.000000	
29.835350	1868.000000	
29.854800	1848.000000	
29.874250	1969.000000	
29.893700	1854.000000	
29.913150	1808.000000	
29.932600	1789.000000	
29.952050	1855.000000	
29.971500	1779.000000	
29.990950	1823.000000	
30.010400	1802.000000	
30.029850	1785.000000	
30.049300	1733.000000	
30.068750	1762.000000	
30.088200	1799.000000	
30.107650	1823.000000	
30.127100	1771.000000	
30.146550	1791.000000	
30.166000	1776.000000	
30.185450	1849.000000	
30.204900	1746.000000	
30.224350	1790.000000	
30.243800	1692.000000	
30.263250	1783.000000	
30.282700	1764.000000	
30.302150	1815.000000	
30.321600	1845.000000	
30.341050	1752.000000	
30.360510	1730.000000	
30.379950	1711.000000	
30.399410	1702.000000	
30.418850	1700.000000	
30.438310	1685.000000	
30.457760	1679.000000	
30.477210	1734.000000	
30.496660	1625.000000	
30.516100	1747.000000	
30.535560	1708.000000	
30.555010	1596.000000	
30.574460	1702.000000	
30.593910	1659.000000	
30.613360	1664.000000	
30.632810	1715.000000	
30.652260	1634.000000	
30.671710	1679.000000	
30.691160	1664.000000	
30.710610	1664.000000	
30.730060	1620.000000	
30.749510	1629.000000	
30.768960	1683.000000	
30.788410	1661.000000	
30.807860	1698.000000	
30.827310	1630.000000	
30.846760	1661.000000	
30.866210	1601.000000	
30.885660	1615.000000	
30.905110	1681.000000	
30.924560	1604.000000	
30.944010	1661.000000	
30.963460	1640.000000	
30.982910	1645.000000	
31.002360	1635.000000	
31.021810	1558.000000	
31.041260	1617.000000	
31.060710	1634.000000	
31.080160	1666.000000	
31.099610	1631.000000	
31.119060	1662.000000	
31.138510	1626.000000	
31.157960	1624.000000	
31.177410	1644.000000	
31.196860	1631.000000	
31.216310	1748.000000	
31.235760	1624.000000	
31.255210	1684.000000	
31.274660	1621.000000	
31.294110	1641.000000	
31.313560	1699.000000	
31.333010	1625.000000	
31.352460	1687.000000	
31.371910	1638.000000	
31.391360	1648.000000	
31.410810	1686.000000	
31.430260	1741.000000	
31.449710	1786.000000	
31.469160	1753.000000	
31.488610	1799.000000	
31.508060	1835.000000	
31.527510	1896.000000	
31.546960	1926.000000	
31.566410	1873.000000	
31.585860	1875.000000	
31.605310	1849.000000	
31.624760	1870.000000	
31.644210	1924.000000	
31.663660	1890.000000	
31.683110	1908.000000	
31.702560	1958.000000	
31.722010	1883.000000	
31.741460	1897.000000	
31.760910	1856.000000	
31.780360	1897.000000	
31.799810	1869.000000	
31.819260	1908.000000	
31.838710	1945.000000	
31.858160	1886.000000	
31.877610	1945.000000	
31.897060	1914.000000	
31.916510	2018.000000	
31.935970	1995.000000	
31.955410	1949.000000	
31.974860	1990.000000	
31.994320	1994.000000	
32.013770	1969.000000	
32.033210	1934.000000	
32.052660	2065.000000	
32.072120	1903.000000	
32.091560	2007.000000	
32.111010	2036.000000	
32.130470	2068.000000	
32.149920	2141.000000	
32.169360	2168.000000	
32.188820	2288.000000	
32.208270	2282.000000	
32.227720	2266.000000	
32.247160	2517.000000	
32.266620	2585.000000	
32.286070	2856.000000	
32.305510	2968.000000	
32.324970	3169.000000	
32.344420	3343.000000	
32.363870	3717.000000	
32.383320	4240.000000	
32.402770	4840.000000	
32.422220	5510.000000	
32.441670	6689.000000	
32.461120	8071.000000	
32.480570	9467.000000	
32.500020	11678.000000	
32.519470	14913.000000	
32.538920	20613.000000	
32.558370	27682.000000	
32.577820	38954.000000	
32.597270	60384.000000	
32.616720	86533.000000	
32.636170	91847.000000	
32.655620	73654.000000	
32.675070	61860.000000	
32.694520	55716.000000	
32.713970	51337.000000	
32.733420	39400.000000	
32.752870	27706.000000	
32.772320	17758.000000	
32.791770	9640.000000	
32.811220	5908.000000	
32.830670	4757.000000	
32.850120	3917.000000	
32.869570	3499.000000	
32.889020	3157.000000	
32.908470	2974.000000	
32.927920	2958.000000	
32.947370	2843.000000	
32.966820	2477.000000	
32.986270	2388.000000	
33.005720	2303.000000	
33.025170	2278.000000	
33.044620	2157.000000	
33.064070	2054.000000	
33.083520	2033.000000	
33.102970	2005.000000	
33.122420	2000.000000	
33.141870	1944.000000	
33.161320	1968.000000	
33.180770	1930.000000	
33.200220	1914.000000	
33.219670	1897.000000	
33.239120	1877.000000	
33.258570	1828.000000	
33.278020	1821.000000	
33.297470	1830.000000	
33.316920	1889.000000	
33.336370	1774.000000	
33.355820	1847.000000	
33.375270	1777.000000	
33.394720	1760.000000	
33.414170	1804.000000	
33.433620	1708.000000	
33.453070	1648.000000	
33.472520	1762.000000	
33.491970	1775.000000	
33.511420	1745.000000	
33.530880	1647.000000	
33.550320	1724.000000	
33.569770	1745.000000	
33.589230	1716.000000	
33.608670	1649.000000	
33.628120	1692.000000	
33.647570	1639.000000	
33.667030	1698.000000	
33.686470	1643.000000	
33.705920	1627.000000	
33.725380	1626.000000	
33.744830	1644.000000	
33.764270	1612.000000	
33.783720	1595.000000	
33.803180	1661.000000	
33.822620	1645.000000	
33.842070	1574.000000	
33.861530	1578.000000	
33.880980	1596.000000	
33.900420	1595.000000	
33.919880	1595.000000	
33.939330	1511.000000	
33.958780	1594.000000	
33.978220	1612.000000	
33.997680	1619.000000	
34.017130	1545.000000	
34.036580	1501.000000	
34.056030	1535.000000	
34.075480	1610.000000	
34.094930	1577.000000	
34.114380	1513.000000	
34.133830	1565.000000	
34.153280	1542.000000	
34.172730	1538.000000	
34.192180	1540.000000	
34.211630	1468.000000	
34.231080	1579.000000	
34.250530	1570.000000	
34.269980	1486.000000	
34.289430	1500.000000	
34.308880	1583.000000	
34.328330	1497.000000	
34.347780	1552.000000	
34.367230	1537.000000	
34.386680	1506.000000	
34.406130	1555.000000	
34.425580	1504.000000	
34.445030	1498.000000	
34.464480	1532.000000	
34.483930	1440.000000	
34.503380	1478.000000	
34.522830	1517.000000	
34.542280	1476.000000	
34.561730	1438.000000	
34.581180	1490.000000	
34.600630	1550.000000	
34.620080	1520.000000	
34.639530	1487.000000	
34.658980	1506.000000	
34.678430	1458.000000	
34.697880	1600.000000	
34.717330	1527.000000	
34.736780	1577.000000	
34.756230	1550.000000	
34.775680	1464.000000	
34.795130	1514.000000	
34.814580	1527.000000	
34.834030	1544.000000	
34.853480	1462.000000	
34.872930	1486.000000	
34.892380	1502.000000	
34.911830	1472.000000	
34.931280	1502.000000	
34.950730	1469.000000	
34.970180	1585.000000	
34.989630	1458.000000	
35.009080	1464.000000	
35.028530	1517.000000	
35.047980	1498.000000	
35.067430	1495.000000	
35.086880	1507.000000	
35.106330	1451.000000	
35.125780	1538.000000	
35.145230	1463.000000	
35.164680	1509.000000	
35.184130	1522.000000	
35.203580	1481.000000	
35.223030	1454.000000	
35.242480	1485.000000	
35.261940	1559.000000	
35.281380	1450.000000	
35.300830	1494.000000	
35.320290	1454.000000	
35.339740	1541.000000	
35.359180	1510.000000	
35.378630	1521.000000	
35.398090	1519.000000	
35.417530	1502.000000	
35.436980	1512.000000	
35.456440	1531.000000	
35.475890	1514.000000	
35.495330	1528.000000	
35.514790	1536.000000	
35.534240	1562.000000	
35.553690	1554.000000	
35.573130	1587.000000	
35.592590	1648.000000	
35.612040	1717.000000	
35.631480	1752.000000	
35.650940	1788.000000	
35.670390	1962.000000	
35.689840	2068.000000	
35.709280	2222.000000	
35.728740	2365.000000	
35.748190	2579.000000	
35.767640	3078.000000	
35.787090	3521.000000	
35.806540	4045.000000	
35.825990	5160.000000	
35.845440	6882.000000	
35.864890	9304.000000	
35.884340	12437.000000	
35.903790	17246.000000	
35.923240	21132.000000	
35.942690	19293.000000	
35.962140	15072.000000	
35.981590	12807.000000	
36.001040	12036.000000	
36.020490	11681.000000	
36.039940	9591.000000	
36.059390	7003.000000	
36.078840	4943.000000	
36.098290	3125.000000	
36.117740	2477.000000	
36.137190	2190.000000	
36.156640	2097.000000	
36.176090	1877.000000	
36.195540	1660.000000	
36.214990	1692.000000	
36.234440	1655.000000	
36.253890	1620.000000	
36.273340	1533.000000	
36.292790	1477.000000	
36.312240	1544.000000	
36.331690	1458.000000	
36.351140	1496.000000	
36.370590	1535.000000	
36.390040	1372.000000	
36.409490	1518.000000	
36.428940	1394.000000	
36.448390	1478.000000	
36.467840	1439.000000	
36.487290	1413.000000	
36.506740	1455.000000	
36.526190	1492.000000	
36.545640	1399.000000	
36.565090	1462.000000	
36.584540	1438.000000	
36.603990	1405.000000	
36.623440	1447.000000	
36.642890	1365.000000	
36.662340	1440.000000	
36.681790	1379.000000	
36.701240	1405.000000	
36.720690	1381.000000	
36.740140	1336.000000	
36.759590	1382.000000	
36.779040	1410.000000	
36.798490	1443.000000	
36.817940	1392.000000	
36.837390	1434.000000	
36.856850	1391.000000	
36.876290	1407.000000	
36.895740	1329.000000	
36.915190	1405.000000	
36.934640	1265.000000	
36.954090	1397.000000	
36.973540	1320.000000	
36.993000	1405.000000	
37.012440	1387.000000	
37.031890	1387.000000	
37.051350	1354.000000	
37.070800	1387.000000	
37.090240	1353.000000	
37.109690	1390.000000	
37.129150	1381.000000	
37.148590	1324.000000	
37.168040	1397.000000	
37.187500	1362.000000	
37.206950	1370.000000	
37.226390	1425.000000	
37.245850	1361.000000	
37.265300	1399.000000	
37.284750	1361.000000	
37.304190	1308.000000	
37.323650	1312.000000	
37.343100	1369.000000	
37.362550	1400.000000	
37.382000	1331.000000	
37.401450	1371.000000	
37.420900	1371.000000	
37.440350	1400.000000	
37.459800	1405.000000	
37.479250	1362.000000	
37.498700	1399.000000	
37.518150	1444.000000	
37.537600	1428.000000	
37.557050	1508.000000	
37.576500	1496.000000	
37.595950	1492.000000	
37.615400	1513.000000	
37.634850	1478.000000	
37.654300	1373.000000	
37.673750	1354.000000	
37.693200	1338.000000	
37.712650	1331.000000	
37.732100	1377.000000	
37.751550	1417.000000	
37.771000	1322.000000	
37.790450	1309.000000	
37.809900	1374.000000	
37.829350	1355.000000	
37.848800	1424.000000	
37.868250	1317.000000	
37.887700	1348.000000	
37.907150	1321.000000	
37.926600	1369.000000	
37.946050	1371.000000	
37.965500	1247.000000	
37.984950	1323.000000	
38.004400	1356.000000	
38.023850	1345.000000	
38.043300	1406.000000	
38.062750	1351.000000	
38.082200	1389.000000	
38.101650	1377.000000	
38.121100	1348.000000	
38.140550	1379.000000	
38.160000	1358.000000	
38.179450	1396.000000	
38.198900	1397.000000	
38.218350	1356.000000	
38.237800	1329.000000	
38.257250	1366.000000	
38.276700	1332.000000	
38.296150	1340.000000	
38.315600	1299.000000	
38.335050	1290.000000	
38.354500	1318.000000	
38.373950	1339.000000	
38.393400	1379.000000	
38.412850	1324.000000	
38.432300	1335.000000	
38.451750	1319.000000	
38.471200	1310.000000	
38.490650	1360.000000	
38.510100	1379.000000	
38.529550	1378.000000	
38.549000	1336.000000	
38.568450	1366.000000	
38.587910	1450.000000	
38.607350	1347.000000	
38.626800	1373.000000	
38.646250	1365.000000	
38.665710	1342.000000	
38.685150	1348.000000	
38.704600	1306.000000	
38.724060	1348.000000	
38.743500	1308.000000	
38.762950	1266.000000	
38.782410	1348.000000	
38.801860	1379.000000	
38.821300	1295.000000	
38.840750	1394.000000	
38.860210	1330.000000	
38.879660	1390.000000	
38.899100	1356.000000	
38.918560	1327.000000	
38.938010	1315.000000	
38.957450	1360.000000	
38.976910	1332.000000	
38.996360	1425.000000	
39.015810	1372.000000	
39.035250	1222.000000	
39.054710	1343.000000	
39.074160	1406.000000	
39.093610	1403.000000	
39.113060	1353.000000	
39.132510	1365.000000	
39.151960	1351.000000	
39.171410	1358.000000	
39.190860	1408.000000	
39.210310	1299.000000	
39.229760	1357.000000	
39.249210	1373.000000	
39.268660	1362.000000	
39.288110	1361.000000	
39.307560	1365.000000	
39.327010	1350.000000	
39.346460	1419.000000	
39.365910	1295.000000	
39.385360	1365.000000	
39.404810	1342.000000	
39.424260	1292.000000	
39.443710	1297.000000	
39.463160	1287.000000	
39.482610	1356.000000	
39.502060	1419.000000	
39.521510	1313.000000	
39.540960	1313.000000	
39.560410	1337.000000	
39.579860	1345.000000	
39.599310	1323.000000	
39.618760	1401.000000	
39.638210	1351.000000	
39.657660	1413.000000	
39.677110	1362.000000	
39.696560	1448.000000	
39.716010	1408.000000	
39.735460	1388.000000	
39.754910	1398.000000	
39.774360	1375.000000	
39.793810	1443.000000	
39.813260	1458.000000	
39.832710	1366.000000	
39.852160	1443.000000	
39.871610	1385.000000	
39.891060	1486.000000	
39.910510	1361.000000	
39.929960	1402.000000	
39.949410	1440.000000	
39.968860	1420.000000	
39.988310	1561.000000	
40.007760	1453.000000	
40.027210	1558.000000	
40.046660	1559.000000	
40.066110	1454.000000	
40.085560	1461.000000	
40.105010	1445.000000	
40.124460	1430.000000	
40.143910	1501.000000	
40.163360	1435.000000	
40.182810	1461.000000	
40.202260	1404.000000	
40.221710	1434.000000	
40.241160	1429.000000	
40.260610	1493.000000	
40.280060	1480.000000	
40.299510	1512.000000	
40.318970	1585.000000	
40.338410	1537.000000	
40.357860	1608.000000	
40.377310	1603.000000	
40.396770	1560.000000	
40.416210	1593.000000	
40.435660	1627.000000	
40.455120	1696.000000	
40.474560	1604.000000	
40.494010	1529.000000	
40.513470	1587.000000	
40.532920	1601.000000	
40.552360	1581.000000	
40.571810	1599.000000	
40.591270	1667.000000	
40.610720	1753.000000	
40.630160	1609.000000	
40.649620	1657.000000	
40.669070	1753.000000	
40.688520	1638.000000	
40.707970	1779.000000	
40.727420	1673.000000	
40.746870	1621.000000	
40.766310	1620.000000	
40.785770	1685.000000	
40.805220	1768.000000	
40.824670	1684.000000	
40.844120	1682.000000	
40.863570	1663.000000	
40.883020	1701.000000	
40.902470	1755.000000	
40.921920	1625.000000	
40.941370	1684.000000	
40.960820	1747.000000	
40.980270	1695.000000	
40.999720	1649.000000	
41.019170	1652.000000	
41.038620	1761.000000	
41.058070	1673.000000	
41.077520	1714.000000	
41.096970	1753.000000	
41.116420	1746.000000	
41.135870	1787.000000	
41.155320	1715.000000	
41.174770	1872.000000	
41.194220	1779.000000	
41.213670	1831.000000	
41.233120	1832.000000	
41.252570	1844.000000	
41.272020	1820.000000	
41.291470	1860.000000	
41.310920	1847.000000	
41.330370	1881.000000	
41.349820	1901.000000	
41.369270	1949.000000	
41.388720	1959.000000	
41.408170	1962.000000	
41.427620	1931.000000	
41.447070	2045.000000	
41.466520	2166.000000	
41.485970	2203.000000	
41.505420	2146.000000	
41.524870	2381.000000	
41.544320	2575.000000	
41.563770	2686.000000	
41.583220	2898.000000	
41.602670	3220.000000	
41.622120	3332.000000	
41.641570	3875.000000	
41.661020	4371.000000	
41.680470	4729.000000	
41.699920	5200.000000	
41.719370	5983.000000	
41.738820	7854.000000	
41.758270	11085.000000	
41.777720	15399.000000	
41.797170	20403.000000	
41.816620	29633.000000	
41.836070	42610.000000	
41.855520	53339.000000	
41.874970	55181.000000	
41.894420	49303.000000	
41.913870	36476.000000	
41.933320	28112.000000	
41.952770	27656.000000	
41.972220	29339.000000	
41.991670	27194.000000	
42.011120	21922.000000	
42.030570	13599.000000	
42.050030	7656.000000	
42.069470	5119.000000	
42.088920	4133.000000	
42.108370	3588.000000	
42.127830	3139.000000	
42.147270	2936.000000	
42.166720	2678.000000	
42.186180	2591.000000	
42.205630	2504.000000	
42.225070	2447.000000	
42.244530	2270.000000	
42.263980	2222.000000	
42.283420	2213.000000	
42.302870	2040.000000	
42.322330	2039.000000	
42.341780	1989.000000	
42.361220	1952.000000	
42.380680	2018.000000	
42.400130	2011.000000	
42.419580	1957.000000	
42.439030	1838.000000	
42.458480	1950.000000	
42.477930	1956.000000	
42.497380	1871.000000	
42.516830	1929.000000	
42.536280	1960.000000	
42.555730	1896.000000	
42.575180	1884.000000	
42.594630	1828.000000	
42.614080	1907.000000	
42.633530	1867.000000	
42.652980	1836.000000	
42.672430	1826.000000	
42.691880	1749.000000	
42.711330	1795.000000	
42.730780	1755.000000	
42.750230	1883.000000	
42.769680	1879.000000	
42.789130	1792.000000	
42.808580	1850.000000	
42.828030	1839.000000	
42.847480	1827.000000	
42.866930	1858.000000	
42.886380	1829.000000	
42.905830	1808.000000	
42.925280	1871.000000	
42.944730	1855.000000	
42.964180	1808.000000	
42.983630	1830.000000	
43.003080	1841.000000	
43.022530	1847.000000	
43.041980	1883.000000	
43.061430	1817.000000	
43.080880	1850.000000	
43.100330	1897.000000	
43.119780	1925.000000	
43.139230	1813.000000	
43.158680	1794.000000	
43.178130	1809.000000	
43.197580	1830.000000	
43.217030	1824.000000	
43.236480	1777.000000	
43.255930	1843.000000	
43.275380	1806.000000	
43.294830	1777.000000	
43.314280	1803.000000	
43.333730	1821.000000	
43.353180	1904.000000	
43.372630	1731.000000	
43.392080	1800.000000	
43.411530	1795.000000	
43.430980	1797.000000	
43.450430	1907.000000	
43.469880	1790.000000	
43.489330	1761.000000	
43.508780	1773.000000	
43.528230	1763.000000	
43.547680	1762.000000	
43.567130	1757.000000	
43.586580	1856.000000	
43.606030	1798.000000	
43.625480	1787.000000	
43.644930	1767.000000	
43.664380	1809.000000	
43.683830	1848.000000	
43.703280	1749.000000	
43.722740	1795.000000	
43.742180	1853.000000	
43.761630	1730.000000	
43.781090	1806.000000	
43.800530	1784.000000	
43.819980	1729.000000	
43.839430	1769.000000	
43.858890	1747.000000	
43.878330	1738.000000	
43.897780	1807.000000	
43.917240	1786.000000	
43.936690	1776.000000	
43.956130	1815.000000	
43.975590	1796.000000	
43.995040	1778.000000	
44.014490	1799.000000	
44.033930	1734.000000	
44.053390	1855.000000	
44.072840	1803.000000	
44.092280	1708.000000	
44.111740	1857.000000	
44.131190	1824.000000	
44.150640	1919.000000	
44.170090	1893.000000	
44.189540	1985.000000	
44.208990	2012.000000	
44.228440	2117.000000	
44.247890	2207.000000	
44.267340	2294.000000	
44.286790	2311.000000	
44.306240	2517.000000	
44.325690	2716.000000	
44.345140	2938.000000	
44.364590	3104.000000	
44.384040	3390.000000	
44.403490	3777.000000	
44.422940	4376.000000	
44.442390	5142.000000	
44.461840	6045.000000	
44.481290	7564.000000	
44.500740	9991.000000	
44.520190	14434.000000	
44.539640	20591.000000	
44.559090	29604.000000	
44.578540	36793.000000	
44.597990	35103.000000	
44.617440	30042.000000	
44.636890	22374.000000	
44.656340	17124.000000	
44.675790	17422.000000	
44.695240	19652.000000	
44.714690	18668.000000	
44.734140	15373.000000	
44.753590	11086.000000	
44.773040	6534.000000	
44.792490	4238.000000	
44.811940	3291.000000	
44.831390	2867.000000	
44.850840	2523.000000	
44.870290	2353.000000	
44.889740	2207.000000	
44.909190	2187.000000	
44.928640	2042.000000	
44.948090	2022.000000	
44.967540	1983.000000	
44.986990	1956.000000	
45.006440	1853.000000	
45.025890	1790.000000	
45.045340	1878.000000	
45.064790	1777.000000	
45.084240	1845.000000	
45.103690	1749.000000	
45.123140	1725.000000	
45.142590	1757.000000	
45.162040	1742.000000	
45.181490	1797.000000	
45.200940	1723.000000	
45.220390	1619.000000	
45.239840	1626.000000	
45.259290	1621.000000	
45.278740	1706.000000	
45.298190	1747.000000	
45.317640	1780.000000	
45.337090	1646.000000	
45.356540	1681.000000	
45.375990	1653.000000	
45.395440	1619.000000	
45.414890	1617.000000	
45.434340	1604.000000	
45.453800	1620.000000	
45.473240	1652.000000	
45.492690	1574.000000	
45.512150	1664.000000	
45.531600	1618.000000	
45.551040	1593.000000	
45.570490	1592.000000	
45.589950	1594.000000	
45.609390	1656.000000	
45.628840	1572.000000	
45.648300	1648.000000	
45.667750	1552.000000	
45.687190	1623.000000	
45.706650	1614.000000	
45.726100	1563.000000	
45.745550	1589.000000	
45.764990	1473.000000	
45.784450	1620.000000	
45.803900	1638.000000	
45.823340	1586.000000	
45.842800	1584.000000	
45.862250	1547.000000	
45.881700	1570.000000	
45.901150	1565.000000	
45.920600	1551.000000	
45.940050	1533.000000	
45.959500	1508.000000	
45.978950	1528.000000	
45.998400	1582.000000	
46.017850	1568.000000	
46.037300	1476.000000	
46.056750	1515.000000	
46.076200	1578.000000	
46.095650	1523.000000	
46.115100	1549.000000	
46.134550	1503.000000	
46.154000	1507.000000	
46.173450	1475.000000	
46.192900	1513.000000	
46.212350	1501.000000	
46.231800	1489.000000	
46.251250	1446.000000	
46.270700	1525.000000	
46.290150	1533.000000	
46.309600	1529.000000	
46.329050	1547.000000	
46.348500	1502.000000	
46.367950	1528.000000	
46.387400	1524.000000	
46.406850	1469.000000	
46.426300	1425.000000	
46.445750	1447.000000	
46.465200	1484.000000	
46.484650	1475.000000	
46.504100	1459.000000	
46.523550	1480.000000	
46.543000	1510.000000	
46.562450	1476.000000	
46.581900	1430.000000	
46.601350	1468.000000	
46.620800	1523.000000	
46.640250	1566.000000	
46.659700	1435.000000	
46.679150	1501.000000	
46.698600	1499.000000	
46.718050	1458.000000	
46.737500	1442.000000	
46.756950	1556.000000	
46.776400	1466.000000	
46.795850	1491.000000	
46.815300	1525.000000	
46.834750	1495.000000	
46.854200	1506.000000	
46.873650	1531.000000	
46.893100	1631.000000	
46.912550	1633.000000	
46.932000	1639.000000	
46.951450	1673.000000	
46.970900	1745.000000	
46.990350	1760.000000	
47.009800	1848.000000	
47.029250	1821.000000	
47.048710	2007.000000	
47.068150	2172.000000	
47.087600	2389.000000	
47.107050	2757.000000	
47.126500	3359.000000	
47.145950	4594.000000	
47.165400	6078.000000	
47.184860	7079.000000	
47.204300	7086.000000	
47.223750	6139.000000	
47.243210	4688.000000	
47.262660	3764.000000	
47.282100	3750.000000	
47.301550	4159.000000	
47.321010	4332.000000	
47.340460	4044.000000	
47.359900	3285.000000	
47.379360	2387.000000	
47.398810	1948.000000	
47.418250	1691.000000	
47.437710	1656.000000	
47.457160	1584.000000	
47.476610	1550.000000	
47.496050	1496.000000	
47.515510	1483.000000	
47.534960	1452.000000	
47.554410	1384.000000	
47.573860	1377.000000	
47.593310	1435.000000	
47.612760	1448.000000	
47.632210	1353.000000	
47.651660	1389.000000	
47.671110	1392.000000	
47.690560	1378.000000	
47.710010	1438.000000	
47.729460	1440.000000	
47.748910	1365.000000	
47.768360	1395.000000	
47.787810	1408.000000	
47.807260	1426.000000	
47.826710	1390.000000	
47.846160	1368.000000	
47.865610	1290.000000	
47.885060	1355.000000	
47.904510	1311.000000	
47.923960	1332.000000	
47.943410	1366.000000	
47.962860	1351.000000	
47.982310	1266.000000	
48.001760	1400.000000	
48.021210	1364.000000	
48.040660	1398.000000	
48.060110	1347.000000	
48.079560	1352.000000	
48.099010	1436.000000	
48.118460	1356.000000	
48.137910	1356.000000	
48.157360	1370.000000	
48.176810	1338.000000	
48.196260	1360.000000	
48.215710	1327.000000	
48.235160	1307.000000	
48.254610	1340.000000	
48.274060	1329.000000	
48.293510	1285.000000	
48.312960	1270.000000	
48.332410	1380.000000	
48.351860	1331.000000	
48.371310	1374.000000	
48.390760	1389.000000	
48.410210	1320.000000	
48.429660	1280.000000	
48.449110	1320.000000	
48.468560	1314.000000	
48.488010	1253.000000	
48.507460	1261.000000	
48.526910	1332.000000	
48.546360	1343.000000	
48.565810	1336.000000	
48.585260	1280.000000	
48.604710	1312.000000	
48.624160	1401.000000	
48.643610	1333.000000	
48.663060	1319.000000	
48.682510	1409.000000	
48.701960	1362.000000	
48.721410	1323.000000	
48.740860	1409.000000	
48.760310	1332.000000	
48.779770	1320.000000	
48.799210	1290.000000	
48.818660	1343.000000	
48.838110	1294.000000	
48.857570	1238.000000	
48.877010	1292.000000	
48.896460	1330.000000	
48.915920	1300.000000	
48.935360	1274.000000	
48.954810	1313.000000	
48.974270	1277.000000	
48.993720	1331.000000	
49.013160	1216.000000	
49.032610	1316.000000	
49.052070	1326.000000	
49.071520	1278.000000	
49.090960	1254.000000	
49.110420	1249.000000	
49.129870	1320.000000	
49.149310	1253.000000	
49.168770	1278.000000	
49.188220	1257.000000	
49.207670	1255.000000	
49.227110	1322.000000	
49.246570	1302.000000	
49.266020	1224.000000	
49.285470	1293.000000	
49.304920	1276.000000	
49.324370	1320.000000	
49.343820	1262.000000	
49.363270	1229.000000	
49.382720	1288.000000	
49.402170	1253.000000	
49.421620	1309.000000	
49.441070	1257.000000	
49.460520	1332.000000	
49.479970	1335.000000	
49.499420	1272.000000	
49.518870	1280.000000	
49.538320	1302.000000	
49.557770	1205.000000	
49.577220	1227.000000	
49.596670	1259.000000	
49.616120	1332.000000	
49.635570	1344.000000	
49.655020	1349.000000	
49.674470	1394.000000	
49.693920	1353.000000	
49.713370	1428.000000	
49.732820	1353.000000	
49.752270	1291.000000	
49.771720	1274.000000	
49.791170	1326.000000	
49.810620	1299.000000	
49.830070	1273.000000	
49.849520	1272.000000	
49.868970	1315.000000	
49.888420	1244.000000	
49.907870	1209.000000	
49.927320	1291.000000	
49.946770	1218.000000	
49.966220	1208.000000	
49.985670	1223.000000	
50.005120	1292.000000	
50.024570	1283.000000	
50.044020	1235.000000	
50.063470	1242.000000	
50.082920	1280.000000	
50.102370	1250.000000	
50.121820	1217.000000	
50.141270	1285.000000	
50.160720	1180.000000	
50.180170	1290.000000	
50.199620	1282.000000	
50.219070	1211.000000	
50.238520	1245.000000	
50.257970	1255.000000	
50.277420	1284.000000	
50.296870	1185.000000	
50.316320	1176.000000	
50.335770	1232.000000	
50.355220	1231.000000	
50.374670	1271.000000	
50.394120	1220.000000	
50.413570	1250.000000	
50.433020	1294.000000	
50.452470	1244.000000	
50.471920	1278.000000	
50.491370	1250.000000	
50.510830	1280.000000	
50.530270	1257.000000	
50.549720	1147.000000	
50.569170	1232.000000	
50.588630	1224.000000	
50.608070	1299.000000	
50.627520	1217.000000	
50.646980	1246.000000	
50.666430	1199.000000	
50.685870	1217.000000	
50.705330	1227.000000	
50.724780	1298.000000	
50.744220	1292.000000	
50.763670	1230.000000	
50.783130	1289.000000	
50.802580	1218.000000	
50.822020	1282.000000	
50.841480	1241.000000	
50.860930	1269.000000	
50.880380	1201.000000	
50.899830	1192.000000	
50.919280	1230.000000	
50.938730	1211.000000	
50.958170	1262.000000	
50.977630	1247.000000	
50.997080	1229.000000	
51.016530	1202.000000	
51.035980	1267.000000	
51.055430	1306.000000	
51.074880	1262.000000	
51.094330	1261.000000	
51.113780	1206.000000	
51.133230	1246.000000	
51.152680	1257.000000	
51.172130	1201.000000	
51.191580	1212.000000	
51.211030	1200.000000	
51.230480	1243.000000	
51.249930	1245.000000	
51.269380	1225.000000	
51.288830	1237.000000	
51.308280	1254.000000	
51.327730	1216.000000	
51.347180	1245.000000	
51.366630	1230.000000	
51.386080	1267.000000	
51.405530	1234.000000	
51.424980	1264.000000	
51.444430	1222.000000	
51.463880	1270.000000	
51.483330	1242.000000	
51.502780	1253.000000	
51.522230	1336.000000	
51.541680	1313.000000	
51.561130	1310.000000	
51.580580	1286.000000	
51.600030	1326.000000	
51.619480	1328.000000	
51.638930	1246.000000	
51.658380	1296.000000	
51.677830	1269.000000	
51.697280	1327.000000	
51.716730	1384.000000	
51.736180	1275.000000	
51.755630	1385.000000	
51.775080	1387.000000	
51.794530	1456.000000	
51.813980	1446.000000	
51.833430	1490.000000	
51.852880	1589.000000	
51.872330	1584.000000	
51.891780	1574.000000	
51.911230	1681.000000	
51.930680	1837.000000	
51.950130	1940.000000	
51.969580	2301.000000	
51.989030	2726.000000	
52.008480	3228.000000	
52.027930	4118.000000	
52.047380	5351.000000	
52.066830	6828.000000	
52.086280	8382.000000	
52.105740	8504.000000	
52.125180	7775.000000	
52.144630	6317.000000	
52.164080	4893.000000	
52.183540	4217.000000	
52.202980	4391.000000	
52.222430	4848.000000	
52.241890	5047.000000	
52.261330	4735.000000	
52.280780	3862.000000	
52.300230	2905.000000	
52.319690	2139.000000	
52.339130	1823.000000	
52.358580	1585.000000	
52.378040	1495.000000	
52.397490	1451.000000	
52.416930	1381.000000	
52.436390	1375.000000	
52.455840	1369.000000	
52.475280	1403.000000	
52.494730	1291.000000	
52.514190	1438.000000	
52.533640	1312.000000	
52.553080	1327.000000	
52.572540	1248.000000	
52.591990	1338.000000	
52.611440	1245.000000	
52.630890	1295.000000	
52.650340	1261.000000	
52.669790	1282.000000	
52.689240	1256.000000	
52.708690	1301.000000	
52.728140	1249.000000	
52.747590	1290.000000	
52.767040	1247.000000	
52.786490	1275.000000	
52.805940	1294.000000	
52.825390	1248.000000	
52.844840	1290.000000	
52.864290	1288.000000	
52.883740	1281.000000	
52.903190	1313.000000	
52.922640	1258.000000	
52.942090	1271.000000	
52.961540	1266.000000	
52.980990	1281.000000	
53.000440	1335.000000	
53.019890	1290.000000	
53.039340	1285.000000	
53.058790	1223.000000	
53.078240	1334.000000	
53.097690	1221.000000	
53.117140	1259.000000	
53.136590	1216.000000	
53.156040	1307.000000	
53.175490	1282.000000	
53.194940	1225.000000	
53.214390	1273.000000	
53.233840	1273.000000	
53.253290	1292.000000	
53.272740	1244.000000	
53.292190	1224.000000	
53.311640	1280.000000	
53.331090	1221.000000	
53.350540	1239.000000	
53.369990	1270.000000	
53.389440	1269.000000	
53.408890	1318.000000	
53.428340	1352.000000	
53.447790	1311.000000	
53.467240	1302.000000	
53.486690	1321.000000	
53.506140	1286.000000	
53.525590	1306.000000	
53.545040	1232.000000	
53.564490	1251.000000	
53.583940	1208.000000	
53.603390	1302.000000	
53.622840	1375.000000	
53.642290	1262.000000	
53.661740	1278.000000	
53.681190	1247.000000	
53.700640	1272.000000	
53.720090	1308.000000	
53.739540	1270.000000	
53.758990	1354.000000	
53.778440	1245.000000	
53.797890	1231.000000	
53.817340	1220.000000	
53.836800	1285.000000	
53.856240	1243.000000	
53.875690	1354.000000	
53.895140	1264.000000	
53.914600	1314.000000	
53.934040	1271.000000	
53.953490	1286.000000	
53.972950	1277.000000	
53.992400	1346.000000	
54.011840	1417.000000	
54.031300	1323.000000	
54.050750	1323.000000	
54.070190	1350.000000	
54.089640	1450.000000	
54.109100	1465.000000	
54.128550	1455.000000	
54.147990	1510.000000	
54.167450	1572.000000	
54.186900	1674.000000	
54.206350	1667.000000	
