;content of CsPbBr3.uxd - (Diffrac Plus V4 file)
_FILEVERSION = 3
_SAMPLE = CsPbBr3
_+SAMPLE
_USER = Lab Manager
_GONIOMETER_CODE = 21
_STAGE_CODE = 0
; Goniometer : D8 theta/theta, stage : Standard
_SAMPLE_CHANGER_CODE = 0
_ATTACHMENTS_CODE = 0
_GONIOMETER_RADIUS = 250
_FIXED_DIVSLIT = 1
_MONOCHROMATOR = 0
; Incident beam monochromator : None
_BETA_FILTER = N
_FIXED_ANTISLIT = 18
_ANALYZER_CODE = 0
; Received beam analyzer : None
_DATEMEASURED = 28-Jul-2026 08:52:16
_RUNTIME = 1637.335
_WL_UNIT = A
_WL1 = 1.5406
_WL2 = 1.54439
_WL3 = 1.39222
_WLRATIO = 0.5
_ANODE = Cu
_V4_INF_USER = Lab Manager
_V4_INF_SAMPLEID = CsPbBr3
_V4_INF_CREATOR = DatToUxdConverter
_V4_INF_CREATOR_VERSION = 1.0.0.0

; Data for range 1
_DRIVE = COUPLED
_STEPTIME = 1
_STEPSIZE = 0.019449999999999967
_STEPMODE = C
_START = 5.0001
_THETA = 2.50005
_2THETA = 5.0001
_DETECTORSLIT = out
_TIMESTARTED = 0
_KV = 40
_MA = 40
_RANGE_WL = 1.5406
_3DPLANE = 0
_V4_PSD2THETA = 9999
_V4_PSDCHANNEL1 = 0
_V4_PSDAPERTURE = 2.745898
_V4_PSDTYPE = 5
_V4_PSDFIXED = 0
_V4_COUNTERS_MASK = 1
_V4_DRIVES_MASK = 0
_V4_ENCODERS_MASK = 0
_2THETACOUNTS = 1
; 2THETA	Cnt2_D1	
5.000100	4171.000000	
5.019550	4164.000000	
5.039000	4165.000000	
5.058450	4136.000000	
5.077900	4171.000000	
5.097350	4177.000000	
5.116800	4167.000000	
5.136250	4127.000000	
5.155700	4144.000000	
5.175150	4155.000000	
5.194600	4176.000000	
5.214050	4212.000000	
5.233500	4189.000000	
5.252950	4036.000000	
5.272400	4128.000000	
5.291850	4059.000000	
5.311300	4238.000000	
5.330750	4110.000000	
5.350200	4018.000000	
5.369650	3991.000000	
5.389100	4096.000000	
5.408550	3982.000000	
5.428000	4080.000000	
5.447450	4128.000000	
5.466900	4014.000000	
5.486350	3860.000000	
5.505800	3902.000000	
5.525250	3986.000000	
5.544700	3965.000000	
5.564150	3956.000000	
5.583600	3962.000000	
5.603050	3995.000000	
5.622500	3715.000000	
5.641950	3825.000000	
5.661400	3832.000000	
5.680850	3921.000000	
5.700300	3916.000000	
5.719750	3756.000000	
5.739200	3833.000000	
5.758650	3770.000000	
5.778100	3782.000000	
5.797550	3755.000000	
5.817010	3751.000000	
5.836450	3758.000000	
5.855910	3667.000000	
5.875360	3759.000000	
5.894810	3676.000000	
5.914260	3717.000000	
5.933710	3580.000000	
5.953160	3683.000000	
5.972610	3455.000000	
5.992060	3605.000000	
6.011510	3643.000000	
6.030960	3461.000000	
6.050410	3517.000000	
6.069860	3430.000000	
6.089310	3483.000000	
6.108760	3563.000000	
6.128210	3579.000000	
6.147660	3378.000000	
6.167110	3331.000000	
6.186560	3273.000000	
6.206010	3382.000000	
6.225460	3340.000000	
6.244910	3303.000000	
6.264360	3375.000000	
6.283810	3342.000000	
6.303260	3260.000000	
6.322710	3229.000000	
6.342160	3267.000000	
6.361610	3154.000000	
6.381060	3225.000000	
6.400510	3216.000000	
6.419960	3151.000000	
6.439410	3190.000000	
6.458860	3119.000000	
6.478310	3124.000000	
6.497760	3105.000000	
6.517210	3114.000000	
6.536660	3076.000000	
6.556110	3090.000000	
6.575560	3031.000000	
6.595010	2900.000000	
6.614460	2990.000000	
6.633910	2961.000000	
6.653360	3038.000000	
6.672810	2951.000000	
6.692260	2946.000000	
6.711710	2955.000000	
6.731160	2957.000000	
6.750610	2877.000000	
6.770060	2800.000000	
6.789510	2762.000000	
6.808960	2840.000000	
6.828410	2885.000000	
6.847860	2850.000000	
6.867310	2827.000000	
6.886760	2765.000000	
6.906210	2847.000000	
6.925660	2726.000000	
6.945110	2671.000000	
6.964560	2653.000000	
6.984010	2740.000000	
7.003460	2655.000000	
7.022910	2663.000000	
7.042360	2622.000000	
7.061810	2714.000000	
7.081260	2714.000000	
7.100710	2547.000000	
7.120160	2575.000000	
7.139610	2443.000000	
7.159060	2585.000000	
7.178510	2536.000000	
7.197960	2604.000000	
7.217410	2505.000000	
7.236860	2432.000000	
7.256310	2462.000000	
7.275760	2460.000000	
7.295210	2386.000000	
7.314660	2406.000000	
7.334110	2409.000000	
7.353560	2445.000000	
7.373010	2400.000000	
7.392460	2343.000000	
7.411910	2414.000000	
7.431360	2294.000000	
7.450810	2374.000000	
7.470260	2367.000000	
7.489710	2346.000000	
7.509160	2269.000000	
7.528610	2240.000000	
7.548070	2383.000000	
7.567520	2298.000000	
7.586970	2262.000000	
7.606420	2208.000000	
7.625870	2221.000000	
7.645320	2208.000000	
7.664770	2114.000000	
7.684220	2176.000000	
7.703670	2104.000000	
7.723120	2220.000000	
7.742570	2191.000000	
7.762020	2026.000000	
7.781470	2142.000000	
7.800920	2131.000000	
7.820370	2146.000000	
7.839820	2150.000000	
7.859270	2097.000000	
7.878720	2117.000000	
7.898170	2142.000000	
7.917620	2040.000000	
7.937070	2090.000000	
7.956520	2095.000000	
7.975970	2002.000000	
7.995420	2047.000000	
8.014870	2023.000000	
8.034320	2060.000000	
8.053770	2008.000000	
8.073220	1979.000000	
8.092670	1958.000000	
8.112120	1953.000000	
8.131570	1963.000000	
8.151020	1955.000000	
8.170470	1954.000000	
8.189920	1973.000000	
8.209370	1890.000000	
8.228820	1846.000000	
8.248270	1844.000000	
8.267720	1819.000000	
8.287170	1920.000000	
8.306620	1949.000000	
8.326070	1835.000000	
8.345520	1857.000000	
8.364970	1910.000000	
8.384420	1838.000000	
8.403870	1847.000000	
8.423320	1904.000000	
8.442770	1825.000000	
8.462220	1847.000000	
8.481670	1822.000000	
8.501120	1754.000000	
8.520570	1758.000000	
8.540020	1823.000000	
8.559470	1778.000000	
8.578920	1769.000000	
8.598370	1830.000000	
8.617820	1816.000000	
8.637270	1749.000000	
8.656720	1749.000000	
8.676170	1738.000000	
8.695620	1779.000000	
8.715070	1777.000000	
8.734520	1651.000000	
8.753970	1690.000000	
8.773420	1673.000000	
8.792870	1820.000000	
8.812320	1653.000000	
8.831770	1754.000000	
8.851220	1618.000000	
8.870670	1648.000000	
8.890120	1612.000000	
8.909570	1671.000000	
8.929020	1627.000000	
8.948470	1645.000000	
8.967920	1610.000000	
8.987370	1543.000000	
9.006820	1608.000000	
9.026270	1670.000000	
9.045720	1632.000000	
9.065170	1582.000000	
9.084620	1614.000000	
9.104070	1626.000000	
9.123520	1591.000000	
9.142970	1582.000000	
9.162430	1578.000000	
9.181880	1543.000000	
9.201330	1525.000000	
9.220770	1521.000000	
9.240220	1530.000000	
9.259680	1562.000000	
9.279130	1528.000000	
9.298580	1528.000000	
9.318030	1543.000000	
9.337480	1552.000000	
9.356930	1505.000000	
9.376380	1543.000000	
9.395830	1492.000000	
9.415280	1431.000000	
9.434730	1472.000000	
9.454180	1469.000000	
9.473630	1468.000000	
9.493080	1442.000000	
9.512530	1540.000000	
9.531980	1551.000000	
9.551430	1472.000000	
9.570880	1426.000000	
9.590330	1394.000000	
9.609780	1380.000000	
9.629230	1458.000000	
9.648680	1503.000000	
9.668130	1419.000000	
9.687580	1501.000000	
9.707030	1504.000000	
9.726480	1486.000000	
9.745930	1434.000000	
9.765380	1421.000000	
9.784830	1421.000000	
9.804280	1372.000000	
9.823730	1443.000000	
9.843180	1436.000000	
9.862630	1413.000000	
9.882080	1456.000000	
9.901530	1408.000000	
9.920980	1355.000000	
9.940430	1416.000000	
9.959880	1417.000000	
9.979330	1456.000000	
9.998780	1344.000000	
10.018230	1324.000000	
10.037680	1295.000000	
10.057130	1363.000000	
10.076580	1385.000000	
10.096030	1410.000000	
10.115480	1332.000000	
10.134930	1330.000000	
10.154380	1348.000000	
10.173830	1390.000000	
10.193280	1413.000000	
10.212730	1351.000000	
10.232180	1362.000000	
10.251630	1366.000000	
10.271080	1345.000000	
10.290530	1381.000000	
10.309980	1307.000000	
10.329430	1399.000000	
10.348880	1371.000000	
10.368330	1385.000000	
10.387780	1405.000000	
10.407230	1308.000000	
10.426680	1304.000000	
10.446130	1344.000000	
10.465580	1299.000000	
10.485030	1363.000000	
10.504480	1305.000000	
10.523930	1313.000000	
10.543380	1374.000000	
10.562830	1280.000000	
10.582280	1275.000000	
10.601730	1284.000000	
10.621180	1331.000000	
10.640630	1250.000000	
10.660080	1268.000000	
10.679530	1277.000000	
10.698980	1225.000000	
10.718430	1289.000000	
10.737880	1269.000000	
10.757330	1254.000000	
10.776780	1273.000000	
10.796230	1245.000000	
10.815680	1289.000000	
10.835130	1245.000000	
10.854580	1306.000000	
10.874030	1301.000000	
10.893490	1204.000000	
10.912940	1232.000000	
10.932390	1276.000000	
10.951840	1312.000000	
10.971290	1220.000000	
10.990740	1259.000000	
11.010190	1189.000000	
11.029640	1239.000000	
11.049090	1283.000000	
11.068540	1282.000000	
11.087990	1232.000000	
11.107440	1238.000000	
11.126890	1205.000000	
11.146340	1271.000000	
11.165790	1233.000000	
11.185240	1236.000000	
11.204690	1232.000000	
11.224140	1282.000000	
11.243590	1176.000000	
11.263040	1246.000000	
11.282490	1196.000000	
11.301940	1198.000000	
11.321390	1244.000000	
11.340840	1223.000000	
11.360290	1218.000000	
11.379740	1250.000000	
11.399190	1224.000000	
11.418640	1239.000000	
11.438090	1144.000000	
11.457540	1240.000000	
11.476990	1180.000000	
11.496440	1241.000000	
11.515890	1162.000000	
11.535340	1152.000000	
11.554790	1252.000000	
11.574240	1203.000000	
11.593690	1252.000000	
11.613140	1155.000000	
11.632590	1184.000000	
11.652040	1110.000000	
11.671490	1207.000000	
11.690940	1241.000000	
11.710390	1163.000000	
11.729840	1194.000000	
11.749290	1242.000000	
11.768740	1198.000000	
11.788190	1170.000000	
11.807640	1228.000000	
11.827090	1197.000000	
11.846540	1188.000000	
11.865990	1162.000000	
11.885440	1186.000000	
11.904890	1141.000000	
11.924340	1192.000000	
11.943790	1149.000000	
11.963240	1179.000000	
11.982690	1183.000000	
12.002140	1155.000000	
12.021590	1158.000000	
12.041040	1157.000000	
12.060490	1112.000000	
12.079940	1171.000000	
12.099390	1142.000000	
12.118840	1147.000000	
12.138290	1145.000000	
12.157740	1120.000000	
12.177190	1070.000000	
12.196640	1080.000000	
12.216090	1110.000000	
12.235540	1165.000000	
12.254990	1135.000000	
12.274440	1103.000000	
12.293890	1218.000000	
12.313340	1182.000000	
12.332790	1164.000000	
12.352240	1142.000000	
12.371690	1198.000000	
12.391140	1145.000000	
12.410590	1080.000000	
12.430040	1145.000000	
12.449490	1109.000000	
12.468940	1115.000000	
12.488390	1060.000000	
12.507840	1139.000000	
12.527300	1073.000000	
12.546740	1130.000000	
12.566190	1217.000000	
12.585640	1197.000000	
12.605090	1186.000000	
12.624550	1172.000000	
12.644000	1253.000000	
12.663450	1225.000000	
12.682900	1196.000000	
12.702350	1143.000000	
12.721800	1137.000000	
12.741250	1123.000000	
12.760700	1166.000000	
12.780150	1147.000000	
12.799600	1151.000000	
12.819050	1176.000000	
12.838500	1105.000000	
12.857950	1142.000000	
12.877400	1103.000000	
12.896850	1121.000000	
12.916300	1087.000000	
12.935750	1133.000000	
12.955200	1148.000000	
12.974650	1150.000000	
12.994100	1136.000000	
13.013550	1068.000000	
13.033000	1111.000000	
13.052450	1074.000000	
13.071900	1147.000000	
13.091350	1046.000000	
13.110800	1116.000000	
13.130250	1138.000000	
13.149700	1170.000000	
13.169150	1102.000000	
13.188600	1057.000000	
13.208050	1088.000000	
13.227500	1068.000000	
13.246950	1105.000000	
13.266400	1097.000000	
13.285850	1139.000000	
13.305300	1126.000000	
13.324750	1084.000000	
13.344200	1122.000000	
13.363650	1165.000000	
13.383100	1058.000000	
13.402550	1070.000000	
13.422000	1151.000000	
13.441450	1066.000000	
13.460900	1079.000000	
13.480350	1098.000000	
13.499800	1053.000000	
13.519250	1106.000000	
13.538700	1035.000000	
13.558150	1111.000000	
13.577600	1120.000000	
13.597050	1151.000000	
13.616500	1073.000000	
13.635950	1022.000000	
13.655400	1066.000000	
13.674850	1122.000000	
13.694300	1164.000000	
13.713750	1080.000000	
13.733200	1049.000000	
13.752650	1192.000000	
13.772100	1081.000000	
13.791550	1099.000000	
13.811000	1034.000000	
13.830450	1047.000000	
13.849900	1042.000000	
13.869350	1003.000000	
13.888800	1030.000000	
13.908250	1051.000000	
13.927700	1068.000000	
13.947150	1023.000000	
13.966600	1098.000000	
13.986050	1005.000000	
14.005500	1000.000000	
14.024950	1005.000000	
14.044400	1025.000000	
14.063850	1021.000000	
14.083300	1024.000000	
14.102750	1026.000000	
14.122200	1003.000000	
14.141650	1047.000000	
14.161100	1035.000000	
14.180550	1008.000000	
14.200000	984.000000	
14.219450	970.000000	
14.238900	1015.000000	
14.258360	1022.000000	
14.277810	1039.000000	
14.297260	1028.000000	
14.316710	1021.000000	
14.336150	1014.000000	
14.355610	1035.000000	
14.375060	1088.000000	
14.394510	946.000000	
14.413960	1037.000000	
14.433410	1042.000000	
14.452860	1078.000000	
14.472310	1082.000000	
14.491760	1109.000000	
14.511210	1071.000000	
14.530660	1053.000000	
14.550110	1102.000000	
14.569560	1139.000000	
14.589010	1203.000000	
14.608460	1173.000000	
14.627910	1278.000000	
14.647360	1275.000000	
14.666810	1389.000000	
14.686260	1428.000000	
14.705710	1479.000000	
14.725160	1608.000000	
14.744610	1642.000000	
14.764060	1767.000000	
14.783510	1853.000000	
14.802960	1959.000000	
14.822410	2082.000000	
14.841860	2127.000000	
14.861310	2284.000000	
14.880760	2407.000000	
14.900210	2690.000000	
14.919660	3008.000000	
14.939110	3416.000000	
14.958560	3829.000000	
14.978010	4344.000000	
14.997460	5074.000000	
15.016910	6037.000000	
15.036360	7841.000000	
15.055810	10501.000000	
15.075260	12863.000000	
15.094710	13723.000000	
15.114160	11747.000000	
15.133610	10125.000000	
15.153060	9651.000000	
15.172510	11557.000000	
15.191960	15678.000000	
15.211410	22825.000000	
15.230860	31782.000000	
15.250310	33270.000000	
15.269760	23068.000000	
15.289210	14431.000000	
15.308660	6533.000000	
15.328110	2618.000000	
15.347560	1904.000000	
15.367010	1706.000000	
15.386460	1553.000000	
15.405910	1562.000000	
15.425360	1534.000000	
15.444810	1332.000000	
15.464260	1340.000000	
15.483710	1257.000000	
15.503160	1273.000000	
15.522610	1177.000000	
15.542060	1190.000000	
15.561510	1109.000000	
15.580960	1103.000000	
15.600410	1057.000000	
15.619860	1152.000000	
15.639310	1164.000000	
15.658760	1113.000000	
15.678210	1101.000000	
15.697660	1061.000000	
15.717110	1082.000000	
15.736560	1086.000000	
15.756010	1040.000000	
15.775460	1045.000000	
15.794910	1053.000000	
15.814360	1113.000000	
15.833810	1080.000000	
15.853260	1084.000000	
15.872710	993.000000	
15.892160	1048.000000	
15.911610	1028.000000	
15.931060	1055.000000	
15.950510	1075.000000	
15.969960	1067.000000	
15.989420	1048.000000	
16.008870	1092.000000	
16.028310	1079.000000	
16.047770	1052.000000	
16.067210	1040.000000	
16.086670	958.000000	
16.106120	977.000000	
16.125570	1010.000000	
16.145020	1053.000000	
16.164470	1066.000000	
16.183920	1020.000000	
16.203370	1042.000000	
16.222820	1043.000000	
16.242270	1107.000000	
16.261720	1028.000000	
16.281170	1101.000000	
16.300620	1012.000000	
16.320070	990.000000	
16.339520	998.000000	
16.358970	1018.000000	
16.378420	1025.000000	
16.397870	1033.000000	
16.417320	999.000000	
16.436770	1059.000000	
16.456220	1037.000000	
16.475670	1039.000000	
16.495120	1036.000000	
16.514570	1039.000000	
16.534020	1056.000000	
16.553470	1005.000000	
16.572920	999.000000	
16.592370	1010.000000	
16.611820	954.000000	
16.631270	1003.000000	
16.650720	998.000000	
16.670170	1020.000000	
16.689620	995.000000	
16.709070	1046.000000	
16.728520	1038.000000	
16.747970	1093.000000	
16.767420	1010.000000	
16.786870	1004.000000	
16.806320	1101.000000	
16.825770	1089.000000	
16.845220	1040.000000	
16.864670	1062.000000	
16.884120	1114.000000	
16.903570	1176.000000	
16.923020	1159.000000	
16.942470	1183.000000	
16.961920	1369.000000	
16.981370	1405.000000	
17.000820	1533.000000	
17.020270	1539.000000	
17.039720	1360.000000	
17.059170	1182.000000	
17.078620	1112.000000	
17.098070	990.000000	
17.117520	992.000000	
17.136970	1002.000000	
17.156420	1021.000000	
17.175870	1001.000000	
17.195320	986.000000	
17.214770	968.000000	
17.234220	1018.000000	
17.253670	958.000000	
17.273120	1025.000000	
17.292570	970.000000	
17.312020	972.000000	
17.331470	1039.000000	
17.350920	1014.000000	
17.370370	1027.000000	
17.389820	1016.000000	
17.409270	936.000000	
17.428720	937.000000	
17.448170	1058.000000	
17.467620	979.000000	
17.487070	932.000000	
17.506530	985.000000	
17.525970	992.000000	
17.545420	984.000000	
17.564870	989.000000	
17.584320	969.000000	
17.603780	1037.000000	
17.623220	1017.000000	
17.642680	960.000000	
17.662120	951.000000	
17.681580	1009.000000	
17.701030	953.000000	
17.720480	960.000000	
17.739930	1012.000000	
17.759380	1023.000000	
17.778830	993.000000	
17.798270	1000.000000	
17.817730	1000.000000	
17.837180	972.000000	
17.856630	1013.000000	
17.876080	1061.000000	
17.895530	943.000000	
17.914980	923.000000	
17.934430	1026.000000	
17.953880	994.000000	
17.973330	988.000000	
17.992780	1016.000000	
18.012230	962.000000	
18.031680	958.000000	
18.051130	1012.000000	
18.070580	988.000000	
18.090030	1032.000000	
18.109480	1027.000000	
18.128930	991.000000	
18.148380	1053.000000	
18.167830	1006.000000	
18.187280	996.000000	
18.206730	954.000000	
18.226180	979.000000	
18.245630	1030.000000	
18.265080	1023.000000	
18.284530	1062.000000	
18.303980	1003.000000	
18.323430	1053.000000	
18.342880	1007.000000	
18.362330	1026.000000	
18.381780	1024.000000	
18.401230	1034.000000	
18.420680	976.000000	
18.440130	971.000000	
18.459580	1051.000000	
18.479030	969.000000	
18.498480	999.000000	
18.517930	1037.000000	
18.537380	989.000000	
18.556830	1016.000000	
18.576280	995.000000	
18.595730	1018.000000	
18.615180	1040.000000	
18.634630	1034.000000	
18.654080	1087.000000	
18.673530	1011.000000	
18.692980	1034.000000	
18.712430	1008.000000	
18.731880	1033.000000	
18.751330	1035.000000	
18.770780	1079.000000	
18.790230	1035.000000	
18.809680	1030.000000	
18.829130	1000.000000	
18.848580	978.000000	
18.868030	1033.000000	
18.887480	1007.000000	
18.906930	1055.000000	
18.926380	1067.000000	
18.945830	1001.000000	
18.965280	988.000000	
18.984730	1010.000000	
19.004180	1072.000000	
19.023630	1054.000000	
19.043080	1052.000000	
19.062530	1047.000000	
19.081980	1038.000000	
19.101430	1036.000000	
19.120880	982.000000	
19.140330	1117.000000	
19.159780	1082.000000	
19.179230	1037.000000	
19.198680	1079.000000	
19.218130	1042.000000	
19.237590	1052.000000	
19.257030	1039.000000	
19.276490	1064.000000	
19.295930	1018.000000	
19.315380	1057.000000	
19.334840	1075.000000	
19.354280	1070.000000	
19.373740	1115.000000	
19.393180	1139.000000	
19.412640	1198.000000	
19.432090	1127.000000	
19.451540	1111.000000	
19.470990	1038.000000	
19.490440	1057.000000	
19.509890	1040.000000	
19.529340	1048.000000	
19.548790	1090.000000	
19.568240	1029.000000	
19.587690	1005.000000	
19.607140	999.000000	
19.626590	1064.000000	
19.646040	1007.000000	
19.665490	1027.000000	
19.684940	1019.000000	
19.704390	1003.000000	
19.723840	1057.000000	
19.743290	1053.000000	
19.762740	996.000000	
19.782190	1032.000000	
19.801640	1075.000000	
19.821090	1113.000000	
19.840540	1127.000000	
19.859990	1022.000000	
19.879440	1080.000000	
19.898890	1009.000000	
19.918340	1045.000000	
19.937790	1034.000000	
19.957240	1107.000000	
19.976690	1031.000000	
19.996140	1021.000000	
20.015590	1008.000000	
20.035040	1056.000000	
20.054490	1069.000000	
20.073940	1094.000000	
20.093390	1032.000000	
20.112840	1105.000000	
20.132290	1063.000000	
20.151740	1044.000000	
20.171190	995.000000	
20.190640	1084.000000	
20.210090	998.000000	
20.229540	1043.000000	
20.248990	1076.000000	
20.268440	1019.000000	
20.287890	1033.000000	
20.307340	981.000000	
20.326790	981.000000	
20.346240	1020.000000	
20.365690	1047.000000	
20.385140	1014.000000	
20.404590	1046.000000	
20.424040	1071.000000	
20.443490	1024.000000	
20.462940	1072.000000	
20.482390	1058.000000	
20.501840	1070.000000	
20.521290	1060.000000	
20.540740	1054.000000	
20.560190	1071.000000	
20.579640	1048.000000	
20.599090	1010.000000	
20.618540	1007.000000	
20.637990	1163.000000	
20.657440	1068.000000	
20.676890	1085.000000	
20.696340	1125.000000	
20.715790	1096.000000	
20.735240	1136.000000	
20.754690	1149.000000	
20.774140	1214.000000	
20.793590	1246.000000	
20.813040	1217.000000	
20.832490	1271.000000	
20.851940	1289.000000	
20.871390	1239.000000	
20.890840	1295.000000	
20.910290	1284.000000	
20.929740	1351.000000	
20.949190	1371.000000	
20.968650	1516.000000	
20.988090	1475.000000	
21.007550	1628.000000	
21.026990	1722.000000	
21.046450	1804.000000	
21.065900	1972.000000	
21.085350	2228.000000	
21.104800	2412.000000	
21.124240	2587.000000	
21.143700	2939.000000	
21.163150	3199.000000	
21.182600	3261.000000	
21.202050	3617.000000	
21.221500	3787.000000	
21.240950	3765.000000	
21.260400	3945.000000	
21.279850	4103.000000	
21.299300	4136.000000	
21.318750	4668.000000	
21.338200	5347.000000	
21.357650	6457.000000	
21.377100	8075.000000	
21.396550	10261.000000	
21.416000	13582.000000	
21.435450	19342.000000	
21.454900	27976.000000	
21.474350	38667.000000	
21.493800	43872.000000	
21.513250	40624.000000	
21.532700	34238.000000	
21.552150	29132.000000	
21.571600	19088.000000	
21.591050	13117.000000	
21.610500	11505.000000	
21.629950	11748.000000	
21.649400	14606.000000	
21.668850	14870.000000	
21.688300	11150.000000	
21.707750	8270.000000	
21.727200	6948.000000	
21.746650	3999.000000	
21.766100	2231.000000	
21.785550	1834.000000	
21.805000	1618.000000	
21.824450	1610.000000	
21.843900	1535.000000	
21.863350	1403.000000	
21.882800	1344.000000	
21.902250	1327.000000	
21.921700	1308.000000	
21.941150	1282.000000	
21.960600	1200.000000	
21.980050	1241.000000	
21.999500	1264.000000	
22.018950	1221.000000	
22.038400	1251.000000	
22.057850	1247.000000	
22.077300	1149.000000	
22.096750	1164.000000	
22.116200	1231.000000	
22.135650	1158.000000	
22.155100	1116.000000	
22.174550	1230.000000	
22.194000	1233.000000	
22.213450	1135.000000	
22.232900	1148.000000	
22.252350	1203.000000	
22.271800	1210.000000	
22.291250	1151.000000	
22.310700	1166.000000	
22.330150	1191.000000	
22.349600	1136.000000	
22.369050	1276.000000	
22.388500	1275.000000	
22.407950	1267.000000	
22.427400	1268.000000	
22.446850	1303.000000	
22.466300	1311.000000	
22.485750	1219.000000	
22.505200	1198.000000	
22.524650	1150.000000	
22.544100	1203.000000	
22.563550	1097.000000	
22.583000	1169.000000	
22.602460	1152.000000	
22.621900	1144.000000	
22.641350	1134.000000	
22.660800	1141.000000	
22.680250	1086.000000	
22.699710	1124.000000	
22.719150	1144.000000	
22.738610	1113.000000	
22.758050	1132.000000	
22.777510	1226.000000	
22.796960	1217.000000	
22.816410	1286.000000	
22.835860	1344.000000	
22.855310	1352.000000	
22.874760	1264.000000	
22.894210	1314.000000	
22.913660	1127.000000	
22.933110	1183.000000	
22.952560	1085.000000	
22.972010	1041.000000	
22.991460	1058.000000	
23.010910	1046.000000	
23.030360	1091.000000	
23.049810	1077.000000	
23.069260	1084.000000	
23.088710	1033.000000	
23.108160	1083.000000	
23.127610	1039.000000	
23.147060	1105.000000	
23.166510	1008.000000	
23.185960	1058.000000	
23.205410	1012.000000	
23.224860	1080.000000	
23.244310	1073.000000	
23.263760	1094.000000	
23.283210	1085.000000	
23.302660	1057.000000	
23.322110	1091.000000	
23.341560	1088.000000	
23.361010	1056.000000	
23.380460	1089.000000	
23.399910	1065.000000	
23.419360	1060.000000	
23.438810	1122.000000	
23.458260	1024.000000	
23.477710	1065.000000	
23.497160	1076.000000	
23.516610	1043.000000	
23.536060	990.000000	
23.555510	1106.000000	
23.574960	1026.000000	
23.594410	1120.000000	
23.613860	1059.000000	
23.633310	1084.000000	
23.652760	1069.000000	
23.672210	1064.000000	
23.691660	1052.000000	
23.711110	1048.000000	
23.730560	1091.000000	
23.750010	1083.000000	
23.769460	1076.000000	
23.788910	1158.000000	
23.808360	1146.000000	
23.827810	1184.000000	
23.847260	1101.000000	
23.866710	1247.000000	
23.886160	1197.000000	
23.905610	1306.000000	
23.925060	1210.000000	
23.944510	1228.000000	
23.963960	1293.000000	
23.983410	1321.000000	
24.002860	1308.000000	
24.022310	1462.000000	
24.041760	1554.000000	
24.061210	1692.000000	
24.080660	1951.000000	
24.100110	2392.000000	
24.119560	3355.000000	
24.139010	3912.000000	
24.158460	3763.000000	
24.177910	3383.000000	
24.197360	3833.000000	
24.216810	4406.000000	
24.236260	3824.000000	
24.255710	2616.000000	
24.275160	2399.000000	
24.294610	2194.000000	
24.314060	1630.000000	
24.333520	1229.000000	
24.352960	1131.000000	
24.372420	1112.000000	
24.391860	1111.000000	
24.411310	1090.000000	
24.430770	1099.000000	
24.450210	1074.000000	
24.469670	1037.000000	
24.489110	1100.000000	
24.508570	1073.000000	
24.528020	1051.000000	
24.547470	1104.000000	
24.566920	1070.000000	
24.586370	1090.000000	
24.605820	1010.000000	
24.625270	1092.000000	
24.644720	1107.000000	
24.664170	1099.000000	
24.683620	1163.000000	
24.703070	1073.000000	
24.722520	1115.000000	
24.741970	1085.000000	
24.761420	1044.000000	
24.780870	1132.000000	
24.800320	1098.000000	
24.819770	1175.000000	
24.839220	1112.000000	
24.858670	1159.000000	
24.878120	1113.000000	
24.897570	1159.000000	
24.917020	1181.000000	
24.936470	1160.000000	
24.955920	1125.000000	
24.975370	1186.000000	
24.994820	1143.000000	
25.014270	1213.000000	
25.033720	1275.000000	
25.053170	1406.000000	
25.072620	1383.000000	
25.092070	1502.000000	
25.111520	1714.000000	
25.130970	1836.000000	
25.150420	2272.000000	
25.169870	2849.000000	
25.189320	3088.000000	
25.208770	2529.000000	
25.228220	2247.000000	
25.247670	2273.000000	
25.267120	2146.000000	
25.286570	2054.000000	
25.306020	2310.000000	
25.325470	2521.000000	
25.344920	2434.000000	
25.364370	2602.000000	
25.383820	3134.000000	
25.403270	3192.000000	
25.422720	2513.000000	
25.442170	2092.000000	
25.461620	2097.000000	
25.481070	1788.000000	
25.500520	1397.000000	
25.519970	1254.000000	
25.539420	1219.000000	
25.558870	1068.000000	
25.578320	1131.000000	
25.597770	1180.000000	
25.617220	1118.000000	
25.636670	1123.000000	
25.656120	1115.000000	
25.675570	1073.000000	
25.695020	1100.000000	
25.714470	1019.000000	
25.733920	1083.000000	
25.753370	1119.000000	
25.772820	1036.000000	
25.792270	1091.000000	
25.811720	1051.000000	
25.831170	1094.000000	
25.850620	1150.000000	
25.870070	1081.000000	
25.889520	1088.000000	
25.908970	1117.000000	
25.928420	1133.000000	
25.947870	1124.000000	
25.967320	1191.000000	
25.986770	1125.000000	
26.006220	1107.000000	
26.025670	1162.000000	
26.045120	1197.000000	
26.064580	1308.000000	
26.084020	1321.000000	
26.103480	1338.000000	
26.122920	1312.000000	
26.142380	1285.000000	
26.161830	1393.000000	
26.181280	1380.000000	
26.200730	1374.000000	
26.220170	1518.000000	
26.239630	1492.000000	
26.259080	1550.000000	
26.278530	1565.000000	
26.297980	1817.000000	
26.317430	2130.000000	
26.336880	2561.000000	
26.356330	3351.000000	
26.375780	4515.000000	
26.395230	4546.000000	
26.414680	3755.000000	
26.434130	3784.000000	
26.453580	4219.000000	
26.473030	4549.000000	
26.492480	4487.000000	
26.511930	3207.000000	
26.531380	2647.000000	
26.550830	2627.000000	
26.570280	2209.000000	
26.589730	1557.000000	
26.609180	1257.000000	
26.628630	1184.000000	
26.648080	1126.000000	
26.667530	1119.000000	
26.686980	1118.000000	
26.706430	1136.000000	
26.725880	1142.000000	
26.745330	1057.000000	
26.764780	1096.000000	
26.784230	1020.000000	
26.803680	1102.000000	
26.823130	1089.000000	
26.842580	1029.000000	
26.862030	1104.000000	
26.881480	1078.000000	
26.900930	1091.000000	
26.920380	1138.000000	
26.939830	1112.000000	
26.959280	1068.000000	
26.978730	1061.000000	
26.998180	1089.000000	
27.017630	1112.000000	
27.037080	1042.000000	
27.056530	1091.000000	
27.075980	1127.000000	
27.095430	1123.000000	
27.114880	1134.000000	
27.134330	1119.000000	
27.153780	1151.000000	
27.173230	1179.000000	
27.192680	1115.000000	
27.212130	1165.000000	
27.231580	1159.000000	
27.251030	1112.000000	
27.270480	1084.000000	
27.289930	1150.000000	
27.309380	1115.000000	
27.328830	1257.000000	
27.348280	1178.000000	
27.367730	1248.000000	
27.387180	1422.000000	
27.406630	1571.000000	
27.426080	1925.000000	
27.445530	1900.000000	
27.464980	1539.000000	
27.484430	1518.000000	
27.503880	1579.000000	
27.523330	1504.000000	
27.542780	1358.000000	
27.562230	1303.000000	
27.581680	1244.000000	
27.601130	1234.000000	
27.620580	1188.000000	
27.640030	1227.000000	
27.659480	1293.000000	
27.678930	1288.000000	
27.698390	1317.000000	
27.717830	1345.000000	
27.737280	1171.000000	
27.756730	1104.000000	
27.776180	1184.000000	
27.795640	1106.000000	
27.815080	1071.000000	
27.834540	1149.000000	
27.853980	1105.000000	
27.873440	1086.000000	
27.892890	1120.000000	
27.912340	1112.000000	
27.931790	1084.000000	
27.951240	1108.000000	
27.970690	1096.000000	
27.990140	1124.000000	
28.009590	1133.000000	
28.029040	1132.000000	
28.048490	1181.000000	
28.067940	1118.000000	
28.087390	1161.000000	
28.106840	1157.000000	
28.126290	1224.000000	
28.145740	1183.000000	
28.165190	1192.000000	
28.184640	1168.000000	
28.204090	1213.000000	
28.223540	1183.000000	
28.242990	1143.000000	
28.262440	1266.000000	
28.281890	1235.000000	
28.301340	1298.000000	
28.320790	1349.000000	
28.340240	1281.000000	
28.359690	1341.000000	
28.379140	1377.000000	
28.398590	1388.000000	
28.418040	1380.000000	
28.437490	1405.000000	
28.456940	1545.000000	
28.476390	1641.000000	
28.495840	1796.000000	
28.515290	2199.000000	
28.534740	2607.000000	
28.554190	3468.000000	
28.573640	4362.000000	
28.593090	4151.000000	
28.612540	3806.000000	
28.631990	4518.000000	
28.651440	5079.000000	
28.670890	3669.000000	
28.690340	2574.000000	
28.709790	2457.000000	
28.729240	2349.000000	
28.748690	1800.000000	
28.768140	1401.000000	
28.787590	1252.000000	
28.807040	1249.000000	
28.826490	1273.000000	
28.845940	1249.000000	
28.865390	1199.000000	
28.884840	1192.000000	
28.904290	1307.000000	
28.923740	1194.000000	
28.943190	1214.000000	
28.962640	1245.000000	
28.982090	1279.000000	
29.001540	1269.000000	
29.020990	1272.000000	
29.040440	1230.000000	
29.059890	1298.000000	
29.079340	1255.000000	
29.098790	1256.000000	
29.118240	1157.000000	
29.137690	1168.000000	
29.157140	1183.000000	
29.176590	1193.000000	
29.196040	1171.000000	
29.215490	1234.000000	
29.234940	1234.000000	
29.254390	1114.000000	
29.273840	1182.000000	
29.293290	1194.000000	
29.312740	1246.000000	
29.332190	1234.000000	
29.351640	1226.000000	
29.371090	1244.000000	
29.390540	1272.000000	
29.409990	1240.000000	
29.429450	1221.000000	
29.448890	1282.000000	
29.468350	1223.000000	
29.487790	1252.000000	
29.507250	1277.000000	
29.526700	1239.000000	
29.546140	1248.000000	
29.565600	1283.000000	
29.585040	1311.000000	
29.604500	1256.000000	
29.623950	1304.000000	
29.643400	1405.000000	
29.662850	1386.000000	
29.682300	1395.000000	
29.701750	1388.000000	
29.721200	1423.000000	
29.740650	1447.000000	
29.760100	1392.000000	
29.779550	1452.000000	
29.799000	1433.000000	
29.818450	1437.000000	
29.837900	1439.000000	
29.857350	1493.000000	
29.876800	1448.000000	
29.896250	1499.000000	
29.915700	1541.000000	
29.935150	1640.000000	
29.954600	1640.000000	
29.974050	1610.000000	
29.993500	1700.000000	
30.012950	1773.000000	
30.032400	1929.000000	
30.051850	2042.000000	
30.071300	2176.000000	
30.090750	2155.000000	
30.110200	2216.000000	
30.129650	2424.000000	
30.149100	2318.000000	
30.168550	2241.000000	
30.188000	2409.000000	
30.207450	2430.000000	
30.226900	2699.000000	
30.246350	2791.000000	
30.265800	3081.000000	
30.285250	3451.000000	
30.304700	4208.000000	
30.324150	5704.000000	
30.343600	7307.000000	
30.363050	10235.000000	
30.382500	15800.000000	
30.401950	22540.000000	
30.421400	21441.000000	
30.440850	13786.000000	
30.460300	11274.000000	
30.479750	13240.000000	
30.499200	11909.000000	
30.518650	7241.000000	
30.538100	4927.000000	
30.557550	4563.000000	
30.577000	5066.000000	
30.596450	5778.000000	
30.615900	6838.000000	
30.635350	9203.000000	
30.654800	12995.000000	
30.674250	20538.000000	
30.693700	34627.000000	
30.713150	56205.000000	
30.732600	62684.000000	
30.752050	39986.000000	
30.771500	24222.000000	
30.790950	29265.000000	
30.810400	31042.000000	
30.829850	17884.000000	
30.849300	6500.000000	
30.868750	3757.000000	
30.888200	2896.000000	
30.907650	2680.000000	
30.927100	2362.000000	
30.946550	2309.000000	
30.966000	2117.000000	
30.985450	2016.000000	
31.004900	1804.000000	
31.024350	1824.000000	
31.043800	1710.000000	
31.063250	1671.000000	
31.082700	1533.000000	
31.102150	1615.000000	
31.121600	1563.000000	
31.141050	1565.000000	
31.160510	1499.000000	
31.179950	1536.000000	
31.199410	1526.000000	
31.218850	1493.000000	
31.238310	1532.000000	
31.257760	1451.000000	
31.277210	1519.000000	
31.296660	1432.000000	
31.316100	1379.000000	
31.335560	1424.000000	
31.355010	1478.000000	
31.374460	1483.000000	
31.393910	1527.000000	
31.413360	1580.000000	
31.432810	1709.000000	
31.452260	1926.000000	
31.471710	1989.000000	
31.491160	1847.000000	
31.510610	1638.000000	
31.530060	1640.000000	
31.549510	1676.000000	
31.568960	1610.000000	
31.588410	1516.000000	
31.607860	1581.000000	
31.627310	1657.000000	
31.646760	1910.000000	
31.666210	2200.000000	
31.685660	2091.000000	
31.705110	1749.000000	
31.724560	1741.000000	
31.744010	1724.000000	
31.763460	1702.000000	
31.782910	1413.000000	
31.802360	1323.000000	
31.821810	1267.000000	
31.841260	1260.000000	
31.860710	1247.000000	
31.880160	1253.000000	
31.899610	1213.000000	
31.919060	1246.000000	
31.938510	1239.000000	
31.957960	1264.000000	
31.977410	1246.000000	
31.996860	1250.000000	
32.016310	1235.000000	
32.035760	1300.000000	
32.055210	1190.000000	
32.074660	1212.000000	
32.094110	1206.000000	
32.113560	1172.000000	
32.133010	1213.000000	
32.152460	1191.000000	
32.171910	1200.000000	
32.191360	1212.000000	
32.210810	1239.000000	
32.230260	1242.000000	
32.249710	1174.000000	
32.269160	1176.000000	
32.288610	1202.000000	
32.308060	1253.000000	
32.327510	1231.000000	
32.346960	1175.000000	
32.366410	1220.000000	
32.385860	1153.000000	
32.405310	1214.000000	
32.424760	1207.000000	
32.444210	1165.000000	
32.463660	1189.000000	
32.483110	1177.000000	
32.502560	1165.000000	
32.522010	1190.000000	
32.541460	1187.000000	
32.560910	1183.000000	
32.580360	1208.000000	
32.599810	1177.000000	
32.619260	1149.000000	
32.638710	1164.000000	
32.658160	1180.000000	
32.677610	1216.000000	
32.697060	1193.000000	
32.716510	1152.000000	
32.735970	1142.000000	
32.755410	1181.000000	
32.774860	1189.000000	
32.794320	1212.000000	
32.813770	1105.000000	
32.833210	1192.000000	
32.852660	1205.000000	
32.872120	1208.000000	
32.891560	1163.000000	
32.911010	1138.000000	
32.930470	1163.000000	
32.949920	1252.000000	
32.969360	1185.000000	
32.988820	1130.000000	
33.008270	1135.000000	
33.027720	1200.000000	
33.047160	1217.000000	
33.066620	1147.000000	
33.086070	1115.000000	
33.105510	1168.000000	
33.124970	1168.000000	
33.144420	1157.000000	
33.163870	1182.000000	
33.183320	1200.000000	
33.202770	1195.000000	
33.222220	1266.000000	
33.241670	1263.000000	
33.261120	1182.000000	
33.280570	1249.000000	
33.300020	1295.000000	
33.319470	1416.000000	
33.338920	1567.000000	
33.358370	1616.000000	
33.377820	1633.000000	
33.397270	1641.000000	
33.416720	1760.000000	
33.436170	1777.000000	
33.455620	1546.000000	
33.475070	1405.000000	
33.494520	1455.000000	
33.513970	1445.000000	
33.533420	1377.000000	
33.552870	1359.000000	
33.572320	1374.000000	
33.591770	1387.000000	
33.611220	1625.000000	
33.630670	1740.000000	
33.650120	1538.000000	
33.669570	1411.000000	
33.689020	1450.000000	
33.708470	1474.000000	
33.727920	1432.000000	
33.747370	1306.000000	
33.766820	1246.000000	
33.786270	1355.000000	
33.805720	1303.000000	
33.825170	1330.000000	
33.844620	1434.000000	
33.864070	1514.000000	
33.883520	1502.000000	
33.902970	1515.000000	
33.922420	1541.000000	
33.941870	1540.000000	
33.961320	1528.000000	
33.980770	1622.000000	
34.000220	1699.000000	
34.019670	1800.000000	
34.039120	1957.000000	
34.058570	2114.000000	
34.078020	2415.000000	
34.097470	2900.000000	
34.116920	3752.000000	
34.136370	5038.000000	
34.155820	6419.000000	
34.175270	6660.000000	
34.194720	4797.000000	
34.214170	3595.000000	
34.233620	4267.000000	
34.253070	4818.000000	
34.272520	4399.000000	
34.291970	3826.000000	
34.311420	4298.000000	
34.330880	5949.000000	
34.350320	9331.000000	
34.369770	12538.000000	
34.389230	11318.000000	
34.408670	6502.000000	
34.428120	5334.000000	
34.447570	6656.000000	
34.467030	7601.000000	
34.486470	6052.000000	
34.505920	5332.000000	
34.525380	6081.000000	
34.544830	5408.000000	
34.564270	3291.000000	
34.583720	2825.000000	
34.603180	3427.000000	
34.622620	3504.000000	
34.642070	2586.000000	
34.661530	1721.000000	
34.680980	1393.000000	
34.700420	1295.000000	
34.719880	1216.000000	
34.739330	1290.000000	
34.758780	1290.000000	
34.778220	1204.000000	
34.797680	1194.000000	
34.817130	1170.000000	
34.836580	1163.000000	
34.856030	1178.000000	
34.875480	1193.000000	
34.894930	1200.000000	
34.914380	1176.000000	
34.933830	1140.000000	
34.953280	1204.000000	
34.972730	1246.000000	
34.992180	1187.000000	
35.011630	1199.000000	
35.031080	1123.000000	
35.050530	1171.000000	
35.069980	1211.000000	
35.089430	1200.000000	
35.108880	1305.000000	
35.128330	1262.000000	
35.147780	1281.000000	
35.167230	1311.000000	
35.186680	1565.000000	
35.206130	1884.000000	
35.225580	2135.000000	
35.245030	2119.000000	
35.264480	1586.000000	
35.283930	1550.000000	
35.303380	1571.000000	
35.322830	1649.000000	
35.342280	1584.000000	
35.361730	1433.000000	
35.381180	1467.000000	
35.400630	1478.000000	
35.420080	1294.000000	
35.439530	1234.000000	
35.458980	1216.000000	
35.478430	1248.000000	
35.497880	1197.000000	
35.517330	1168.000000	
35.536780	1014.000000	
35.556230	1076.000000	
35.575680	1091.000000	
35.595130	1088.000000	
35.614580	1115.000000	
35.634030	1161.000000	
35.653480	1094.000000	
35.672930	1091.000000	
35.692380	1044.000000	
35.711830	1113.000000	
35.731280	1117.000000	
35.750730	1062.000000	
35.770180	1055.000000	
35.789630	1111.000000	
35.809080	1165.000000	
35.828530	1104.000000	
35.847980	1122.000000	
35.867430	1095.000000	
35.886880	1045.000000	
35.906330	1090.000000	
35.925780	1090.000000	
35.945230	1117.000000	
35.964680	1110.000000	
35.984130	1060.000000	
36.003580	1124.000000	
36.023030	1040.000000	
36.042480	1097.000000	
36.061940	1094.000000	
36.081380	1062.000000	
36.100830	1100.000000	
36.120290	1077.000000	
36.139740	1092.000000	
36.159180	1064.000000	
36.178630	1111.000000	
36.198090	1036.000000	
36.217530	1120.000000	
36.236980	1110.000000	
36.256440	1095.000000	
36.275890	1091.000000	
36.295330	1052.000000	
36.314790	1111.000000	
36.334240	1137.000000	
36.353690	1137.000000	
36.373130	1142.000000	
36.392590	1159.000000	
36.412040	1131.000000	
36.431480	1182.000000	
36.450940	1161.000000	
36.470390	1150.000000	
36.489840	1146.000000	
36.509280	1158.000000	
36.528740	1169.000000	
36.548190	1172.000000	
36.567640	1216.000000	
36.587090	1178.000000	
36.606540	1207.000000	
36.625990	1165.000000	
36.645440	1111.000000	
36.664890	1142.000000	
36.684340	1218.000000	
36.703790	1197.000000	
36.723240	1234.000000	
36.742690	1174.000000	
36.762140	1138.000000	
36.781590	1154.000000	
36.801040	1114.000000	
36.820490	1173.000000	
36.839940	1154.000000	
36.859390	1170.000000	
36.878840	1109.000000	
36.898290	1209.000000	
36.917740	1248.000000	
36.937190	1166.000000	
36.956640	1190.000000	
36.976090	1221.000000	
36.995540	1213.000000	
37.014990	1141.000000	
37.034440	1151.000000	
37.053890	1216.000000	
37.073340	1198.000000	
37.092790	1222.000000	
37.112240	1270.000000	
37.131690	1230.000000	
37.151140	1322.000000	
37.170590	1315.000000	
37.190040	1366.000000	
37.209490	1381.000000	
37.228940	1508.000000	
37.248390	1554.000000	
37.267840	1600.000000	
37.287290	1767.000000	
37.306740	1767.000000	
37.326190	2040.000000	
37.345640	1991.000000	
37.365090	2083.000000	
37.384540	2212.000000	
37.403990	2327.000000	
37.423440	2618.000000	
37.442890	2687.000000	
37.462340	3077.000000	
37.481790	3405.000000	
37.501240	4149.000000	
37.520690	5721.000000	
37.540140	7950.000000	
37.559590	9165.000000	
37.579040	8157.000000	
37.598490	7924.000000	
37.617940	10187.000000	
37.637390	11649.000000	
37.656850	10800.000000	
37.676290	9953.000000	
37.695740	12871.000000	
37.715190	16111.000000	
37.734640	13167.000000	
37.754090	7580.000000	
37.773540	6612.000000	
37.793000	8790.000000	
37.812440	11472.000000	
37.831890	12390.000000	
37.851350	14237.000000	
37.870800	15084.000000	
37.890240	9722.000000	
37.909690	5567.000000	
37.929150	5582.000000	
37.948590	7183.000000	
37.968040	7810.000000	
37.987500	5064.000000	
38.006950	2638.000000	
38.026390	1819.000000	
38.045850	1597.000000	
38.065300	1490.000000	
38.084750	1433.000000	
38.104190	1384.000000	
38.123650	1321.000000	
38.143100	1303.000000	
38.162550	1271.000000	
38.182000	1289.000000	
38.201450	1265.000000	
38.220900	1248.000000	
38.240350	1170.000000	
38.259800	1217.000000	
38.279250	1192.000000	
38.298700	1214.000000	
38.318150	1199.000000	
38.337600	1259.000000	
38.357050	1179.000000	
38.376500	1289.000000	
38.395950	1139.000000	
38.415400	1226.000000	
38.434850	1148.000000	
38.454300	1144.000000	
38.473750	1169.000000	
38.493200	1153.000000	
38.512650	1227.000000	
38.532100	1258.000000	
38.551550	1134.000000	
38.571000	1134.000000	
38.590450	1151.000000	
38.609900	1209.000000	
38.629350	1256.000000	
38.648800	1163.000000	
38.668250	1189.000000	
38.687700	1114.000000	
38.707150	1148.000000	
38.726600	1144.000000	
38.746050	1143.000000	
38.765500	1114.000000	
38.784950	1123.000000	
38.804400	1092.000000	
38.823850	1190.000000	
38.843300	1090.000000	
38.862750	1141.000000	
38.882200	1104.000000	
38.901650	1166.000000	
38.921100	1156.000000	
38.940550	1169.000000	
38.960000	1208.000000	
38.979450	1199.000000	
38.998900	1198.000000	
39.018350	1343.000000	
39.037800	1271.000000	
39.057250	1216.000000	
39.076700	1244.000000	
39.096150	1238.000000	
39.115600	1296.000000	
39.135050	1347.000000	
39.154500	1454.000000	
39.173950	1635.000000	
39.193400	1679.000000	
39.212850	1651.000000	
39.232300	1555.000000	
39.251750	1624.000000	
39.271200	1472.000000	
39.290650	1441.000000	
39.310100	1394.000000	
39.329550	1393.000000	
39.349000	1438.000000	
39.368450	1420.000000	
39.387910	1394.000000	
39.407350	1568.000000	
39.426800	1663.000000	
39.446250	1422.000000	
39.465710	1416.000000	
39.485150	1600.000000	
39.504600	1815.000000	
39.524060	1757.000000	
39.543500	1415.000000	
39.562950	1345.000000	
39.582410	1269.000000	
39.601860	1405.000000	
39.621300	1334.000000	
39.640750	1171.000000	
39.660210	1195.000000	
39.679660	1113.000000	
39.699100	1156.000000	
39.718560	1094.000000	
39.738010	1086.000000	
39.757450	1125.000000	
39.776910	1184.000000	
39.796360	1101.000000	
39.815810	1164.000000	
39.835250	1222.000000	
39.854710	1312.000000	
39.874160	1359.000000	
39.893610	1208.000000	
39.913060	1193.000000	
39.932510	1166.000000	
39.951960	1150.000000	
39.971410	1236.000000	
39.990860	1171.000000	
40.010310	1052.000000	
40.029760	1082.000000	
40.049210	1156.000000	
40.068660	1090.000000	
40.088110	1112.000000	
40.107560	1136.000000	
40.127010	1090.000000	
40.146460	1077.000000	
40.165910	1172.000000	
40.185360	1185.000000	
40.204810	1145.000000	
40.224260	1235.000000	
40.243710	1157.000000	
40.263160	1252.000000	
40.282610	1310.000000	
40.302060	1209.000000	
40.321510	1130.000000	
40.340960	1123.000000	
40.360410	1068.000000	
40.379860	1145.000000	
40.399310	1094.000000	
40.418760	1078.000000	
40.438210	1098.000000	
40.457660	1096.000000	
40.477110	1077.000000	
40.496560	1094.000000	
40.516010	1042.000000	
40.535460	1065.000000	
40.554910	1093.000000	
40.574360	1042.000000	
40.593810	1053.000000	
40.613260	961.000000	
40.632710	1062.000000	
40.652160	1059.000000	
40.671610	1091.000000	
40.691060	986.000000	
40.710510	1003.000000	
40.729960	1074.000000	
40.749410	1091.000000	
40.768860	1052.000000	
40.788310	1002.000000	
40.807760	1081.000000	
40.827210	1080.000000	
40.846660	1109.000000	
40.866110	1054.000000	
40.885560	1081.000000	
40.905010	1054.000000	
40.924460	1015.000000	
40.943910	1070.000000	
40.963360	1068.000000	
40.982810	1045.000000	
41.002260	1073.000000	
41.021710	1092.000000	
41.041160	1053.000000	
41.060610	1049.000000	
41.080060	1005.000000	
41.099510	1056.000000	
41.118970	1089.000000	
41.138410	995.000000	
41.157860	1048.000000	
41.177310	1052.000000	
41.196770	1062.000000	
41.216210	1101.000000	
41.235660	1081.000000	
41.255120	1016.000000	
41.274560	1080.000000	
41.294010	1064.000000	
41.313470	1013.000000	
41.332920	1083.000000	
41.352360	1020.000000	
41.371810	1057.000000	
41.391270	1020.000000	
41.410720	1098.000000	
41.430160	1099.000000	
41.449620	1058.000000	
41.469070	993.000000	
41.488520	1111.000000	
41.507970	1142.000000	
41.527420	1135.000000	
41.546870	1215.000000	
41.566310	1295.000000	
41.585770	1288.000000	
41.605220	1182.000000	
41.624670	1080.000000	
41.644120	1176.000000	
41.663570	1160.000000	
41.683020	1209.000000	
41.702470	1146.000000	
41.721920	1187.000000	
41.741370	1040.000000	
41.760820	1085.000000	
41.780270	1036.000000	
41.799720	1029.000000	
41.819170	1054.000000	
41.838620	1048.000000	
41.858070	1019.000000	
41.877520	980.000000	
41.896970	1025.000000	
41.916420	984.000000	
41.935870	1092.000000	
41.955320	1049.000000	
41.974770	1038.000000	
41.994220	1020.000000	
42.013670	1054.000000	
42.033120	1002.000000	
42.052570	1030.000000	
42.072020	1034.000000	
42.091470	1082.000000	
42.110920	1058.000000	
42.130370	998.000000	
42.149820	1064.000000	
42.169270	1040.000000	
42.188720	1105.000000	
42.208170	1059.000000	
42.227620	992.000000	
42.247070	1123.000000	
42.266520	1065.000000	
42.285970	1091.000000	
42.305420	1148.000000	
42.324870	1044.000000	
42.344320	1047.000000	
42.363770	1125.000000	
42.383220	1176.000000	
42.402670	1256.000000	
42.422120	1195.000000	
42.441570	1162.000000	
42.461020	1133.000000	
42.480470	1196.000000	
42.499920	1136.000000	
42.519370	1202.000000	
42.538820	1203.000000	
42.558270	1173.000000	
42.577720	1113.000000	
42.597170	1141.000000	
42.616620	1194.000000	
42.636070	1121.000000	
42.655520	1163.000000	
42.674970	1079.000000	
42.694420	1152.000000	
42.713870	1084.000000	
42.733320	1117.000000	
42.752770	1030.000000	
42.772220	1120.000000	
42.791670	1131.000000	
42.811120	1070.000000	
42.830570	1124.000000	
42.850030	1061.000000	
42.869470	1079.000000	
42.888920	1099.000000	
42.908370	1111.000000	
42.927830	1084.000000	
42.947270	1094.000000	
42.966720	1032.000000	
42.986180	1109.000000	
43.005630	1108.000000	
43.025070	1081.000000	
43.044530	1079.000000	
43.063980	1065.000000	
43.083420	1047.000000	
43.102870	1118.000000	
43.122330	1027.000000	
43.141780	1122.000000	
43.161220	1151.000000	
43.180680	1094.000000	
43.200130	1200.000000	
43.219580	1094.000000	
43.239030	1191.000000	
43.258480	1183.000000	
43.277930	1182.000000	
43.297380	1150.000000	
43.316830	1251.000000	
43.336280	1243.000000	
43.355730	1365.000000	
43.375180	1309.000000	
43.394630	1432.000000	
43.414080	1489.000000	
43.433530	1720.000000	
43.452980	1808.000000	
43.472430	1942.000000	
43.491880	2004.000000	
43.511330	2082.000000	
43.530780	2134.000000	
43.550230	2235.000000	
43.569680	2216.000000	
43.589130	2368.000000	
43.608580	2457.000000	
43.628030	2689.000000	
43.647480	2917.000000	
43.666930	3447.000000	
43.686380	4537.000000	
43.705830	6748.000000	
43.725280	10428.000000	
43.744730	15021.000000	
43.764180	16717.000000	
43.783630	11293.000000	
43.803080	6613.000000	
43.822530	7080.000000	
43.841980	9940.000000	
43.861430	12329.000000	
43.880880	10934.000000	
43.900330	6395.000000	
43.919780	3680.000000	
43.939230	3197.000000	
43.958680	3554.000000	
43.978130	3786.000000	
43.997580	2852.000000	
44.017030	2033.000000	
44.036480	2109.000000	
44.055930	2378.000000	
44.075380	2924.000000	
44.094830	4125.000000	
44.114280	5415.000000	
44.133730	4819.000000	
44.153180	2784.000000	
44.172630	2071.000000	
44.192080	2231.000000	
44.211530	2767.000000	
44.230980	3153.000000	
44.250430	2752.000000	
44.269880	1850.000000	
44.289330	1423.000000	
44.308780	1350.000000	
44.328230	1224.000000	
44.347680	1198.000000	
44.367130	1231.000000	
44.386580	1171.000000	
44.406030	1174.000000	
44.425480	1169.000000	
44.444930	1093.000000	
44.464380	1159.000000	
44.483830	1148.000000	
44.503280	1211.000000	
44.522740	1214.000000	
44.542180	1306.000000	
44.561630	1400.000000	
44.581090	1397.000000	
44.600530	1213.000000	
44.619980	1157.000000	
44.639430	1193.000000	
44.658890	1283.000000	
44.678330	1219.000000	
44.697780	1212.000000	
44.717240	1175.000000	
44.736690	1099.000000	
44.756130	1068.000000	
44.775590	1060.000000	
44.795040	1061.000000	
44.814490	1093.000000	
44.833930	1106.000000	
44.853390	1064.000000	
44.872840	1107.000000	
44.892280	1090.000000	
44.911740	1094.000000	
44.931190	1047.000000	
44.950640	1044.000000	
44.970090	1102.000000	
44.989540	1147.000000	
45.008990	1116.000000	
45.028440	1144.000000	
45.047890	1105.000000	
45.067340	1110.000000	
45.086790	1112.000000	
45.106240	1081.000000	
45.125690	1092.000000	
45.145140	1144.000000	
45.164590	1141.000000	
45.184040	1177.000000	
45.203490	1148.000000	
45.222940	1176.000000	
45.242390	1350.000000	
45.261840	1517.000000	
45.281290	1919.000000	
45.300740	2104.000000	
45.320190	1754.000000	
45.339640	1300.000000	
45.359090	1281.000000	
45.378540	1351.000000	
45.397990	1553.000000	
45.417440	1516.000000	
45.436890	1483.000000	
45.456340	1342.000000	
45.475790	1343.000000	
45.495240	1603.000000	
45.514690	1823.000000	
45.534140	2110.000000	
45.553590	1833.000000	
45.573040	1413.000000	
45.592490	1280.000000	
45.611940	1337.000000	
45.631390	1437.000000	
45.650840	1590.000000	
45.670290	1634.000000	
45.689740	1416.000000	
45.709190	1615.000000	
45.728640	1739.000000	
45.748090	1982.000000	
45.767540	1923.000000	
45.786990	1717.000000	
45.806440	1607.000000	
45.825890	1446.000000	
45.845340	1486.000000	
45.864790	1628.000000	
45.884240	1553.000000	
45.903690	1482.000000	
45.923140	1586.000000	
45.942590	1526.000000	
45.962040	1554.000000	
45.981490	1505.000000	
46.000940	1444.000000	
46.020390	1697.000000	
46.039840	1666.000000	
46.059290	1534.000000	
46.078740	1310.000000	
46.098190	1343.000000	
46.117640	1307.000000	
46.137090	1431.000000	
46.156540	1474.000000	
46.175990	1374.000000	
46.195440	1454.000000	
46.214890	1586.000000	
46.234340	1604.000000	
46.253800	1469.000000	
46.273240	1374.000000	
46.292690	1544.000000	
46.312150	1643.000000	
46.331600	1664.000000	
46.351040	1625.000000	
46.370490	1534.000000	
46.389950	1567.000000	
46.409390	1629.000000	
46.428840	1647.000000	
46.448300	1923.000000	
46.467750	2213.000000	
46.487190	2832.000000	
46.506650	3795.000000	
46.526100	4586.000000	
46.545550	3488.000000	
46.564990	2602.000000	
46.584450	2544.000000	
46.603900	3224.000000	
46.623340	4661.000000	
46.642800	5828.000000	
46.662250	4996.000000	
46.681700	2974.000000	
46.701150	2095.000000	
46.720600	2091.000000	
46.740050	2400.000000	
46.759500	2760.000000	
46.778950	2918.000000	
46.798400	2421.000000	
46.817850	2148.000000	
46.837300	1843.000000	
46.856750	1916.000000	
46.876200	2002.000000	
46.895650	1881.000000	
46.915100	1501.000000	
46.934550	1461.000000	
46.954000	1385.000000	
46.973450	1385.000000	
46.992900	1440.000000	
47.012350	1437.000000	
47.031800	1198.000000	
47.051250	1111.000000	
47.070700	979.000000	
47.090150	982.000000	
47.109600	999.000000	
47.129050	1039.000000	
47.148500	1098.000000	
47.167950	1021.000000	
47.187400	1012.000000	
47.206850	1059.000000	
47.226300	1049.000000	
47.245750	1039.000000	
47.265200	1029.000000	
47.284650	1061.000000	
47.304100	991.000000	
47.323550	979.000000	
47.343000	1031.000000	
47.362450	920.000000	
47.381900	1029.000000	
47.401350	1049.000000	
47.420800	1029.000000	
47.440250	1101.000000	
47.459700	1148.000000	
47.479150	1187.000000	
47.498600	1230.000000	
47.518050	1081.000000	
47.537500	1057.000000	
47.556950	1053.000000	
47.576400	1047.000000	
47.595850	1180.000000	
47.615300	1123.000000	
47.634750	1088.000000	
47.654200	1035.000000	
47.673650	1009.000000	
47.693100	1073.000000	
47.712550	1118.000000	
47.732000	1120.000000	
47.751450	1082.000000	
47.770900	1087.000000	
47.790350	987.000000	
47.809800	1076.000000	
47.829250	1105.000000	
47.848710	1035.000000	
47.868150	1140.000000	
47.887600	1084.000000	
47.907050	1150.000000	
47.926500	1156.000000	
47.945950	1186.000000	
47.965400	1455.000000	
47.984860	1791.000000	
48.004300	1941.000000	
48.023750	1724.000000	
48.043210	1273.000000	
48.062660	1185.000000	
48.082100	1202.000000	
48.101550	1312.000000	
48.121010	1465.000000	
48.140460	1449.000000	
48.159900	1394.000000	
48.179360	1356.000000	
48.198810	1528.000000	
48.218250	1805.000000	
48.237710	1930.000000	
48.257160	1447.000000	
48.276610	1195.000000	
48.296050	1146.000000	
48.315510	1155.000000	
48.334960	1330.000000	
48.354410	1386.000000	
48.373860	1288.000000	
48.393310	1119.000000	
48.412760	1043.000000	
48.432210	995.000000	
48.451660	985.000000	
48.471110	1004.000000	
48.490560	1040.000000	
48.510010	996.000000	
48.529460	1013.000000	
48.548910	1006.000000	
48.568360	1050.000000	
48.587810	1049.000000	
48.607260	1012.000000	
48.626710	1003.000000	
48.646160	957.000000	
48.665610	1009.000000	
48.685060	1069.000000	
48.704510	1135.000000	
48.723960	1120.000000	
48.743410	1192.000000	
48.762860	1242.000000	
48.782310	1236.000000	
48.801760	1147.000000	
48.821210	1223.000000	
48.840660	1168.000000	
48.860110	1216.000000	
48.879560	1127.000000	
48.899010	1248.000000	
48.918460	1298.000000	
48.937910	1405.000000	
48.957360	1682.000000	
48.976810	2121.000000	
48.996260	3004.000000	
49.015710	4323.000000	
49.035160	4536.000000	
49.054610	3249.000000	
49.074060	2030.000000	
49.093510	1696.000000	
49.112960	2034.000000	
49.132410	2422.000000	
49.151860	2879.000000	
49.171310	2813.000000	
49.190760	2122.000000	
49.210210	1676.000000	
49.229660	1453.000000	
49.249110	1468.000000	
49.268560	1395.000000	
49.288010	1470.000000	
49.307460	1568.000000	
49.326910	1620.000000	
49.346360	1945.000000	
49.365810	2354.000000	
49.385260	3113.000000	
49.404710	4400.000000	
49.424160	5283.000000	
49.443610	5147.000000	
49.463060	4291.000000	
49.482510	2831.000000	
49.501960	2467.000000	
49.521410	2930.000000	
49.540860	3696.000000	
49.560310	4651.000000	
49.579770	5241.000000	
49.599210	4995.000000	
49.618660	3338.000000	
49.638110	1931.000000	
49.657570	1598.000000	
49.677010	1671.000000	
49.696460	1977.000000	
49.715920	2471.000000	
49.735360	2368.000000	
49.754810	1804.000000	
49.774270	1339.000000	
49.793720	1305.000000	
49.813160	1351.000000	
49.832610	1362.000000	
49.852070	1314.000000	
49.871520	1154.000000	
49.890960	1069.000000	
49.910420	1111.000000	
49.929870	1018.000000	
49.949310	1158.000000	
49.968770	1171.000000	
49.988220	1208.000000	
50.007670	1105.000000	
50.027110	1081.000000	
50.046570	1143.000000	
50.066020	1187.000000	
50.085470	1065.000000	
50.104920	1000.000000	
50.124370	999.000000	
50.143820	1025.000000	
50.163270	986.000000	
50.182720	1075.000000	
50.202170	1088.000000	
50.221620	1019.000000	
50.241070	1067.000000	
50.260520	1014.000000	
50.279970	1041.000000	
50.299420	1029.000000	
50.318870	1009.000000	
50.338320	1048.000000	
50.357770	1038.000000	
50.377220	1013.000000	
50.396670	1018.000000	
50.416120	1015.000000	
50.435570	947.000000	
50.455020	960.000000	
50.474470	964.000000	
50.493920	962.000000	
50.513370	976.000000	
50.532820	1021.000000	
50.552270	1080.000000	
50.571720	1133.000000	
50.591170	1106.000000	
50.610620	1094.000000	
50.630070	1062.000000	
50.649520	1097.000000	
50.668970	1082.000000	
50.688420	1005.000000	
50.707870	1066.000000	
50.727320	999.000000	
50.746770	1051.000000	
50.766220	1021.000000	
50.785670	987.000000	
50.805120	977.000000	
50.824570	996.000000	
50.844020	992.000000	
50.863470	976.000000	
50.882920	936.000000	
50.902370	960.000000	
50.921820	966.000000	
50.941270	970.000000	
50.960720	1028.000000	
50.980170	953.000000	
50.999620	947.000000	
51.019070	980.000000	
51.038520	960.000000	
51.057970	958.000000	
51.077420	989.000000	
51.096870	988.000000	
51.116320	984.000000	
51.135770	1015.000000	
51.155220	1119.000000	
51.174670	1153.000000	
51.194120	1309.000000	
51.213570	1248.000000	
51.233020	1146.000000	
51.252470	1057.000000	
51.271920	1026.000000	
51.291370	1023.000000	
51.310830	1136.000000	
51.330270	1116.000000	
51.349720	1172.000000	
51.369170	1093.000000	
51.388630	1018.000000	
51.408070	1092.000000	
51.427520	1261.000000	
51.446980	1329.000000	
51.466430	1183.000000	
51.485870	1067.000000	
51.505330	1117.000000	
51.524780	1033.000000	
51.544220	1031.000000	
51.563670	1028.000000	
51.583130	1106.000000	
51.602580	1068.000000	
51.622020	1018.000000	
51.641480	980.000000	
51.660930	904.000000	
51.680380	973.000000	
51.699830	933.000000	
51.719280	963.000000	
51.738730	902.000000	
51.758170	1026.000000	
51.777630	959.000000	
51.797080	891.000000	
51.816530	959.000000	
51.835980	938.000000	
51.855430	950.000000	
51.874880	977.000000	
51.894330	1017.000000	
51.913780	937.000000	
51.933230	1026.000000	
51.952680	1022.000000	
51.972130	1051.000000	
51.991580	929.000000	
52.011030	1005.000000	
52.030480	964.000000	
52.049930	968.000000	
52.069380	1025.000000	
52.088830	1080.000000	
52.108280	1019.000000	
52.127730	1087.000000	
52.147180	1029.000000	
52.166630	936.000000	
52.186080	985.000000	
52.205530	958.000000	
52.224980	1050.000000	
52.244430	999.000000	
52.263880	970.000000	
52.283330	1033.000000	
52.302780	1015.000000	
52.322230	1063.000000	
52.341680	1156.000000	
52.361130	1215.000000	
52.380580	1064.000000	
52.400030	1077.000000	
52.419480	1096.000000	
52.438930	1169.000000	
52.458380	1258.000000	
52.477830	1263.000000	
52.497280	1215.000000	
52.516730	1056.000000	
52.536180	1094.000000	
52.555630	1084.000000	
52.575080	1154.000000	
52.594530	1293.000000	
52.613980	1392.000000	
52.633430	1265.000000	
52.652880	1028.000000	
52.672330	1011.000000	
52.691780	1002.000000	
52.711230	1042.000000	
52.730680	1022.000000	
52.750130	1080.000000	
52.769580	1046.000000	
52.789030	1028.000000	
52.808480	970.000000	
52.827930	983.000000	
52.847380	1013.000000	
52.866830	1033.000000	
52.886280	1123.000000	
52.905740	1063.000000	
52.925180	992.000000	
52.944630	978.000000	
52.964080	960.000000	
52.983540	991.000000	
53.002980	1023.000000	
53.022430	1039.000000	
53.041890	986.000000	
53.061330	941.000000	
53.080780	1019.000000	
53.100230	935.000000	
53.119690	996.000000	
53.139130	891.000000	
53.158580	895.000000	
53.178040	921.000000	
53.197490	906.000000	
53.216930	948.000000	
53.236390	930.000000	
53.255840	902.000000	
53.275280	895.000000	
53.294730	991.000000	
53.314190	966.000000	
53.333640	941.000000	
53.353080	917.000000	
53.372540	903.000000	
53.391990	913.000000	
53.411440	881.000000	
53.430890	889.000000	
53.450340	939.000000	
53.469790	980.000000	
53.489240	942.000000	
53.508690	937.000000	
53.528140	881.000000	
53.547590	880.000000	
53.567040	906.000000	
53.586490	870.000000	
53.605940	913.000000	
53.625390	900.000000	
53.644840	951.000000	
53.664290	946.000000	
53.683740	920.000000	
53.703190	916.000000	
53.722640	1012.000000	
53.742090	933.000000	
53.761540	959.000000	
53.780990	931.000000	
53.800440	1015.000000	
53.819890	936.000000	
53.839340	973.000000	
53.858790	948.000000	
53.878240	953.000000	
53.897690	974.000000	
53.917140	960.000000	
53.936590	1010.000000	
53.956040	996.000000	
53.975490	1005.000000	
53.994940	1059.000000	
54.014390	1096.000000	
54.033840	1155.000000	
54.053290	1091.000000	
54.072740	1090.000000	
54.092190	1115.000000	
54.111640	1076.000000	
54.131090	1072.000000	
54.150540	1129.000000	
54.169990	1174.000000	
54.189440	1350.000000	
54.208890	1527.000000	
54.228340	1818.000000	
54.247790	2230.000000	
54.267240	3043.000000	
54.286690	3528.000000	
54.306140	3173.000000	
54.325590	2035.000000	
54.345040	1569.000000	
54.364490	1505.000000	
54.383940	1632.000000	
54.403390	1987.000000	
54.422840	2412.000000	
54.442290	2713.000000	
54.461740	2540.000000	
54.481190	2673.000000	
54.500640	3554.000000	
54.520090	3243.000000	
54.539540	2264.000000	
54.558990	1502.000000	
54.578440	1267.000000	
54.597890	1413.000000	
54.617340	1511.000000	
54.636800	1949.000000	
54.656240	2258.000000	
54.675690	1865.000000	
54.695140	1354.000000	
54.714600	1112.000000	
54.734040	1058.000000	
54.753490	1035.000000	
54.772950	989.000000	
54.792400	1010.000000	
54.811840	1023.000000	
54.831300	956.000000	
54.850750	942.000000	
54.870190	1016.000000	
54.889640	977.000000	
54.909100	1006.000000	
54.928550	958.000000	
54.947990	1035.000000	
54.967450	1077.000000	
54.986900	1204.000000	
55.006350	1311.000000	
