;content of CsPbI3.uxd - (Diffrac Plus V4 file)
_FILEVERSION = 3
_SAMPLE = CsPbI3
_+SAMPLE
_USER = Lab Manager
_GONIOMETER_CODE = 21
_STAGE_CODE = 0
; Goniometer : D8 theta/theta, stage : Standard
_SAMPLE_CHANGER_CODE = 0
_ATTACHMENTS_CODE = 0
_GONIOMETER_RADIUS = 250
_FIXED_DIVSLIT = 1
_MONOCHROMATOR = 0
; Incident beam monochromator : None
_BETA_FILTER = N
_FIXED_ANTISLIT = 18
_ANALYZER_CODE = 0
; Received beam analyzer : None
_DATEMEASURED = 28-Jul-2026 08:52:16
_RUNTIME = 1637.335
_WL_UNIT = A
_WL1 = 1.5406
_WL2 = 1.54439
_WL3 = 1.39222
_WLRATIO = 0.5
_ANODE = Cu
_V4_INF_USER = Lab Manager
_V4_INF_SAMPLEID = CsPbI3
_V4_INF_CREATOR = DatToUxdConverter
_V4_INF_CREATOR_VERSION = 1.0.0.0

; Data for range 1
_DRIVE = COUPLED
_STEPTIME = 1
_STEPSIZE = 0.019449999999999967
_STEPMODE = C
_START = 5.0001
_THETA = 2.50005
_2THETA = 5.0001
_DETECTORSLIT = out
_TIMESTARTED = 0
_KV = 40
_MA = 40
_RANGE_WL = 1.5406
_3DPLANE = 0
_V4_PSD2THETA = 9999
_V4_PSDCHANNEL1 = 0
_V4_PSDAPERTURE = 2.745898
_V4_PSDTYPE = 5
_V4_PSDFIXED = 0
_V4_COUNTERS_MASK = 1
_V4_DRIVES_MASK = 0
_V4_ENCODERS_MASK = 0
_2THETACOUNTS = 1
; 2THETA	Cnt2_D1	
5.000100	1275.000000	
5.019550	1471.000000	
5.039000	1312.000000	
5.058450	1350.000000	
5.077900	1366.000000	
5.097350	1315.000000	
5.116800	1352.000000	
5.136250	1362.000000	
5.155700	1213.000000	
5.175150	1290.000000	
5.194600	1291.000000	
5.214050	1306.000000	
5.233500	1277.000000	
5.252950	1250.000000	
5.272400	1185.000000	
5.291850	1233.000000	
5.311300	1172.000000	
5.330750	1213.000000	
5.350200	1212.000000	
5.369650	1193.000000	
5.389100	1158.000000	
5.408550	1177.000000	
5.428000	1097.000000	
5.447450	1097.000000	
5.466900	1180.000000	
5.486350	1090.000000	
5.505800	1120.000000	
5.525250	1096.000000	
5.544700	1067.000000	
5.564150	1085.000000	
5.583600	1095.000000	
5.603050	1067.000000	
5.622500	1096.000000	
5.641950	995.000000	
5.661400	1103.000000	
5.680850	1042.000000	
5.700300	1040.000000	
5.719750	1043.000000	
5.739200	1006.000000	
5.758650	1028.000000	
5.778100	1000.000000	
5.797550	1017.000000	
5.817010	1035.000000	
5.836450	937.000000	
5.855910	992.000000	
5.875360	985.000000	
5.894810	970.000000	
5.914260	973.000000	
5.933710	925.000000	
5.953160	952.000000	
5.972610	963.000000	
5.992060	926.000000	
6.011510	982.000000	
6.030960	890.000000	
6.050410	942.000000	
6.069860	908.000000	
6.089310	931.000000	
6.108760	893.000000	
6.128210	927.000000	
6.147660	867.000000	
6.167110	914.000000	
6.186560	876.000000	
6.206010	875.000000	
6.225460	825.000000	
6.244910	847.000000	
6.264360	844.000000	
6.283810	895.000000	
6.303260	836.000000	
6.322710	865.000000	
6.342160	803.000000	
6.361610	893.000000	
6.381060	835.000000	
6.400510	845.000000	
6.419960	804.000000	
6.439410	797.000000	
6.458860	849.000000	
6.478310	806.000000	
6.497760	803.000000	
6.517210	816.000000	
6.536660	754.000000	
6.556110	789.000000	
6.575560	814.000000	
6.595010	789.000000	
6.614460	799.000000	
6.633910	771.000000	
6.653360	768.000000	
6.672810	736.000000	
6.692260	747.000000	
6.711710	741.000000	
6.731160	723.000000	
6.750610	718.000000	
6.770060	710.000000	
6.789510	740.000000	
6.808960	777.000000	
6.828410	746.000000	
6.847860	706.000000	
6.867310	662.000000	
6.886760	705.000000	
6.906210	682.000000	
6.925660	674.000000	
6.945110	720.000000	
6.964560	647.000000	
6.984010	666.000000	
7.003460	715.000000	
7.022910	697.000000	
7.042360	677.000000	
7.061810	703.000000	
7.081260	682.000000	
7.100710	652.000000	
7.120160	636.000000	
7.139610	663.000000	
7.159060	608.000000	
7.178510	654.000000	
7.197960	625.000000	
7.217410	614.000000	
7.236860	612.000000	
7.256310	633.000000	
7.275760	576.000000	
7.295210	624.000000	
7.314660	609.000000	
7.334110	596.000000	
7.353560	571.000000	
7.373010	606.000000	
7.392460	621.000000	
7.411910	603.000000	
7.431360	641.000000	
7.450810	544.000000	
7.470260	552.000000	
7.489710	578.000000	
7.509160	628.000000	
7.528610	574.000000	
7.548070	568.000000	
7.567520	553.000000	
7.586970	543.000000	
7.606420	570.000000	
7.625870	581.000000	
7.645320	566.000000	
7.664770	556.000000	
7.684220	587.000000	
7.703670	530.000000	
7.723120	563.000000	
7.742570	493.000000	
7.762020	521.000000	
7.781470	535.000000	
7.800920	541.000000	
7.820370	535.000000	
7.839820	512.000000	
7.859270	493.000000	
7.878720	515.000000	
7.898170	499.000000	
7.917620	510.000000	
7.937070	500.000000	
7.956520	479.000000	
7.975970	492.000000	
7.995420	518.000000	
8.014870	506.000000	
8.034320	544.000000	
8.053770	507.000000	
8.073220	478.000000	
8.092670	458.000000	
8.112120	538.000000	
8.131570	507.000000	
8.151020	493.000000	
8.170470	512.000000	
8.189920	518.000000	
8.209370	502.000000	
8.228820	469.000000	
8.248270	500.000000	
8.267720	432.000000	
8.287170	482.000000	
8.306620	510.000000	
8.326070	427.000000	
8.345520	493.000000	
8.364970	509.000000	
8.384420	461.000000	
8.403870	472.000000	
8.423320	436.000000	
8.442770	447.000000	
8.462220	459.000000	
8.481670	497.000000	
8.501120	495.000000	
8.520570	449.000000	
8.540020	429.000000	
8.559470	504.000000	
8.578920	455.000000	
8.598370	465.000000	
8.617820	439.000000	
8.637270	453.000000	
8.656720	506.000000	
8.676170	455.000000	
8.695620	463.000000	
8.715070	439.000000	
8.734520	417.000000	
8.753970	461.000000	
8.773420	413.000000	
8.792870	457.000000	
8.812320	436.000000	
8.831770	455.000000	
8.851220	456.000000	
8.870670	439.000000	
8.890120	461.000000	
8.909570	460.000000	
8.929020	468.000000	
8.948470	444.000000	
8.967920	433.000000	
8.987370	452.000000	
9.006820	507.000000	
9.026270	456.000000	
9.045720	438.000000	
9.065170	446.000000	
9.084620	483.000000	
9.104070	468.000000	
9.123520	410.000000	
9.142970	417.000000	
9.162430	485.000000	
9.181880	480.000000	
9.201330	401.000000	
9.220770	414.000000	
9.240220	429.000000	
9.259680	424.000000	
9.279130	433.000000	
9.298580	462.000000	
9.318030	473.000000	
9.337480	461.000000	
9.356930	465.000000	
9.376380	475.000000	
9.395830	429.000000	
9.415280	438.000000	
9.434730	444.000000	
9.454180	475.000000	
9.473630	466.000000	
9.493080	461.000000	
9.512530	520.000000	
9.531980	503.000000	
9.551430	487.000000	
9.570880	533.000000	
9.590330	549.000000	
9.609780	604.000000	
9.629230	620.000000	
9.648680	607.000000	
9.668130	708.000000	
9.687580	768.000000	
9.707030	775.000000	
9.726480	822.000000	
9.745930	930.000000	
9.765380	1000.000000	
9.784830	1019.000000	
9.804280	1177.000000	
9.823730	1462.000000	
9.843180	1646.000000	
9.862630	1969.000000	
9.882080	2364.000000	
9.901530	2971.000000	
9.920980	3778.000000	
9.940430	4417.000000	
9.959880	4513.000000	
9.979330	4779.000000	
9.998780	4557.000000	
10.018230	3946.000000	
10.037680	2762.000000	
10.057130	2411.000000	
10.076580	2484.000000	
10.096030	2392.000000	
10.115480	2578.000000	
10.134930	2415.000000	
10.154380	2006.000000	
10.173830	1223.000000	
10.193280	775.000000	
10.212730	635.000000	
10.232180	606.000000	
10.251630	594.000000	
10.271080	569.000000	
10.290530	551.000000	
10.309980	531.000000	
10.329430	472.000000	
10.348880	457.000000	
10.368330	477.000000	
10.387780	469.000000	
10.407230	441.000000	
10.426680	437.000000	
10.446130	456.000000	
10.465580	441.000000	
10.485030	431.000000	
10.504480	436.000000	
10.523930	424.000000	
10.543380	424.000000	
10.562830	470.000000	
10.582280	444.000000	
10.601730	442.000000	
10.621180	434.000000	
10.640630	429.000000	
10.660080	453.000000	
10.679530	401.000000	
10.698980	441.000000	
10.718430	415.000000	
10.737880	441.000000	
10.757330	401.000000	
10.776780	454.000000	
10.796230	431.000000	
10.815680	458.000000	
10.835130	392.000000	
10.854580	443.000000	
10.874030	417.000000	
10.893490	444.000000	
10.912940	468.000000	
10.932390	417.000000	
10.951840	402.000000	
10.971290	404.000000	
10.990740	440.000000	
11.010190	429.000000	
11.029640	401.000000	
11.049090	438.000000	
11.068540	431.000000	
11.087990	439.000000	
11.107440	430.000000	
11.126890	450.000000	
11.146340	426.000000	
11.165790	416.000000	
11.185240	400.000000	
11.204690	391.000000	
11.224140	414.000000	
11.243590	383.000000	
11.263040	432.000000	
11.282490	399.000000	
11.301940	435.000000	
11.321390	419.000000	
11.340840	396.000000	
11.360290	411.000000	
11.379740	378.000000	
11.399190	411.000000	
11.418640	423.000000	
11.438090	410.000000	
11.457540	440.000000	
11.476990	398.000000	
11.496440	397.000000	
11.515890	403.000000	
11.535340	423.000000	
11.554790	418.000000	
11.574240	383.000000	
11.593690	428.000000	
11.613140	376.000000	
11.632590	401.000000	
11.652040	385.000000	
11.671490	404.000000	
11.690940	418.000000	
11.710390	369.000000	
11.729840	433.000000	
11.749290	396.000000	
11.768740	439.000000	
11.788190	393.000000	
11.807640	400.000000	
11.827090	419.000000	
11.846540	397.000000	
11.865990	398.000000	
11.885440	393.000000	
11.904890	414.000000	
11.924340	381.000000	
11.943790	444.000000	
11.963240	421.000000	
11.982690	432.000000	
12.002140	416.000000	
12.021590	384.000000	
12.041040	391.000000	
12.060490	401.000000	
12.079940	372.000000	
12.099390	407.000000	
12.118840	396.000000	
12.138290	384.000000	
12.157740	406.000000	
12.177190	400.000000	
12.196640	391.000000	
12.216090	398.000000	
12.235540	385.000000	
12.254990	421.000000	
12.274440	395.000000	
12.293890	374.000000	
12.313340	407.000000	
12.332790	359.000000	
12.352240	391.000000	
12.371690	381.000000	
12.391140	418.000000	
12.410590	388.000000	
12.430040	364.000000	
12.449490	384.000000	
12.468940	392.000000	
12.488390	400.000000	
12.507840	395.000000	
12.527300	389.000000	
12.546740	404.000000	
12.566190	388.000000	
12.585640	377.000000	
12.605090	405.000000	
12.624550	398.000000	
12.644000	397.000000	
12.663450	360.000000	
12.682900	401.000000	
12.702350	388.000000	
12.721800	407.000000	
12.741250	417.000000	
12.760700	402.000000	
12.780150	429.000000	
12.799600	414.000000	
12.819050	480.000000	
12.838500	447.000000	
12.857950	438.000000	
12.877400	520.000000	
12.896850	525.000000	
12.916300	548.000000	
12.935750	561.000000	
12.955200	587.000000	
12.974650	670.000000	
12.994100	656.000000	
13.013550	713.000000	
13.033000	831.000000	
13.052450	955.000000	
13.071900	1018.000000	
13.091350	1188.000000	
13.110800	1411.000000	
13.130250	1655.000000	
13.149700	2177.000000	
13.169150	2665.000000	
13.188600	3342.000000	
13.208050	3731.000000	
13.227500	3993.000000	
13.246950	3839.000000	
13.266400	2821.000000	
13.285850	1975.000000	
13.305300	1125.000000	
13.324750	734.000000	
13.344200	585.000000	
13.363650	510.000000	
13.383100	550.000000	
13.402550	470.000000	
13.422000	445.000000	
13.441450	460.000000	
13.460900	422.000000	
13.480350	389.000000	
13.499800	422.000000	
13.519250	378.000000	
13.538700	405.000000	
13.558150	374.000000	
13.577600	408.000000	
13.597050	370.000000	
13.616500	378.000000	
13.635950	340.000000	
13.655400	369.000000	
13.674850	376.000000	
13.694300	374.000000	
13.713750	387.000000	
13.733200	334.000000	
13.752650	360.000000	
13.772100	391.000000	
13.791550	398.000000	
13.811000	414.000000	
13.830450	379.000000	
13.849900	367.000000	
13.869350	359.000000	
13.888800	369.000000	
13.908250	345.000000	
13.927700	360.000000	
13.947150	326.000000	
13.966600	358.000000	
13.986050	352.000000	
14.005500	364.000000	
14.024950	359.000000	
14.044400	387.000000	
14.063850	384.000000	
14.083300	355.000000	
14.102750	399.000000	
14.122200	371.000000	
14.141650	378.000000	
14.161100	347.000000	
14.180550	347.000000	
14.200000	383.000000	
14.219450	347.000000	
14.238900	341.000000	
14.258360	354.000000	
14.277810	366.000000	
14.297260	345.000000	
14.316710	370.000000	
14.336150	328.000000	
14.355610	368.000000	
14.375060	396.000000	
14.394510	330.000000	
14.413960	350.000000	
14.433410	375.000000	
14.452860	359.000000	
14.472310	358.000000	
14.491760	343.000000	
14.511210	348.000000	
14.530660	378.000000	
14.550110	359.000000	
14.569560	312.000000	
14.589010	338.000000	
14.608460	362.000000	
14.627910	370.000000	
14.647360	364.000000	
14.666810	350.000000	
14.686260	359.000000	
14.705710	344.000000	
14.725160	332.000000	
14.744610	329.000000	
14.764060	371.000000	
14.783510	357.000000	
14.802960	387.000000	
14.822410	368.000000	
14.841860	339.000000	
14.861310	337.000000	
14.880760	361.000000	
14.900210	379.000000	
14.919660	342.000000	
14.939110	351.000000	
14.958560	342.000000	
14.978010	355.000000	
14.997460	329.000000	
15.016910	332.000000	
15.036360	356.000000	
15.055810	325.000000	
15.075260	364.000000	
15.094710	320.000000	
15.114160	329.000000	
15.133610	342.000000	
15.153060	333.000000	
15.172510	331.000000	
15.191960	346.000000	
15.211410	325.000000	
15.230860	312.000000	
15.250310	327.000000	
15.269760	321.000000	
15.289210	339.000000	
15.308660	308.000000	
15.328110	295.000000	
15.347560	328.000000	
15.367010	313.000000	
15.386460	321.000000	
15.405910	320.000000	
15.425360	315.000000	
15.444810	307.000000	
15.464260	325.000000	
15.483710	323.000000	
15.503160	323.000000	
15.522610	318.000000	
15.542060	325.000000	
15.561510	288.000000	
15.580960	310.000000	
15.600410	314.000000	
15.619860	271.000000	
15.639310	318.000000	
15.658760	296.000000	
15.678210	335.000000	
15.697660	334.000000	
15.717110	300.000000	
15.736560	298.000000	
15.756010	321.000000	
15.775460	297.000000	
15.794910	272.000000	
15.814360	345.000000	
15.833810	345.000000	
15.853260	309.000000	
15.872710	350.000000	
15.892160	334.000000	
15.911610	295.000000	
15.931060	320.000000	
15.950510	318.000000	
15.969960	308.000000	
15.989420	336.000000	
16.008870	317.000000	
16.028310	332.000000	
16.047770	284.000000	
16.067210	333.000000	
16.086670	323.000000	
16.106120	285.000000	
16.125570	304.000000	
16.145020	324.000000	
16.164470	303.000000	
16.183920	302.000000	
16.203370	303.000000	
16.222820	329.000000	
16.242270	298.000000	
16.261720	331.000000	
16.281170	319.000000	
16.300620	293.000000	
16.320070	312.000000	
16.339520	291.000000	
16.358970	331.000000	
16.378420	308.000000	
16.397870	290.000000	
16.417320	320.000000	
16.436770	338.000000	
16.456220	313.000000	
16.475670	287.000000	
16.495120	309.000000	
16.514570	326.000000	
16.534020	303.000000	
16.553470	306.000000	
16.572920	319.000000	
16.592370	298.000000	
16.611820	289.000000	
16.631270	292.000000	
16.650720	297.000000	
16.670170	278.000000	
16.689620	297.000000	
16.709070	304.000000	
16.728520	283.000000	
16.747970	297.000000	
16.767420	302.000000	
16.786870	330.000000	
16.806320	324.000000	
16.825770	303.000000	
16.845220	358.000000	
16.864670	354.000000	
16.884120	376.000000	
16.903570	394.000000	
16.923020	362.000000	
16.942470	448.000000	
16.961920	476.000000	
16.981370	508.000000	
17.000820	548.000000	
17.020270	666.000000	
17.039720	746.000000	
17.059170	958.000000	
17.078620	1046.000000	
17.098070	1288.000000	
17.117520	1363.000000	
17.136970	1213.000000	
17.156420	942.000000	
17.175870	722.000000	
17.195320	531.000000	
17.214770	457.000000	
17.234220	468.000000	
17.253670	426.000000	
17.273120	530.000000	
17.292570	584.000000	
17.312020	693.000000	
17.331470	724.000000	
17.350920	862.000000	
17.370370	777.000000	
17.389820	716.000000	
17.409270	587.000000	
17.428720	469.000000	
17.448170	350.000000	
17.467620	336.000000	
17.487070	370.000000	
17.506530	337.000000	
17.525970	340.000000	
17.545420	362.000000	
17.564870	370.000000	
17.584320	389.000000	
17.603780	394.000000	
17.623220	457.000000	
17.642680	459.000000	
17.662120	537.000000	
17.681580	593.000000	
17.701030	648.000000	
17.720480	785.000000	
17.739930	951.000000	
17.759380	1179.000000	
17.778830	1489.000000	
17.798270	1929.000000	
17.817730	2132.000000	
17.837180	2493.000000	
17.856630	2249.000000	
17.876080	1733.000000	
17.895530	1258.000000	
17.914980	772.000000	
17.934430	501.000000	
17.953880	381.000000	
17.973330	342.000000	
17.992780	364.000000	
18.012230	336.000000	
18.031680	356.000000	
18.051130	307.000000	
18.070580	343.000000	
18.090030	336.000000	
18.109480	269.000000	
18.128930	261.000000	
18.148380	284.000000	
18.167830	316.000000	
18.187280	321.000000	
18.206730	284.000000	
18.226180	288.000000	
18.245630	273.000000	
18.265080	308.000000	
18.284530	284.000000	
18.303980	282.000000	
18.323430	290.000000	
18.342880	259.000000	
18.362330	299.000000	
18.381780	272.000000	
18.401230	299.000000	
18.420680	314.000000	
18.440130	281.000000	
18.459580	278.000000	
18.479030	279.000000	
18.498480	316.000000	
18.517930	253.000000	
18.537380	283.000000	
18.556830	306.000000	
18.576280	285.000000	
18.595730	296.000000	
18.615180	283.000000	
18.634630	290.000000	
18.654080	280.000000	
18.673530	278.000000	
18.692980	277.000000	
18.712430	293.000000	
18.731880	267.000000	
18.751330	261.000000	
18.770780	287.000000	
18.790230	280.000000	
18.809680	266.000000	
18.829130	292.000000	
18.848580	257.000000	
18.868030	257.000000	
18.887480	288.000000	
18.906930	278.000000	
18.926380	299.000000	
18.945830	238.000000	
18.965280	252.000000	
18.984730	295.000000	
19.004180	274.000000	
19.023630	292.000000	
19.043080	288.000000	
19.062530	306.000000	
19.081980	267.000000	
19.101430	270.000000	
19.120880	273.000000	
19.140330	257.000000	
19.159780	278.000000	
19.179230	257.000000	
19.198680	292.000000	
19.218130	273.000000	
19.237590	296.000000	
19.257030	283.000000	
19.276490	301.000000	
19.295930	273.000000	
19.315380	230.000000	
19.334840	279.000000	
19.354280	260.000000	
19.373740	302.000000	
19.393180	284.000000	
19.412640	285.000000	
19.432090	283.000000	
19.451540	307.000000	
19.470990	239.000000	
19.490440	290.000000	
19.509890	267.000000	
19.529340	280.000000	
19.548790	287.000000	
19.568240	294.000000	
19.587690	295.000000	
19.607140	273.000000	
19.626590	317.000000	
19.646040	341.000000	
19.665490	354.000000	
19.684940	375.000000	
19.704390	434.000000	
19.723840	458.000000	
19.743290	544.000000	
19.762740	613.000000	
19.782190	798.000000	
19.801640	988.000000	
19.821090	1165.000000	
19.840540	1313.000000	
19.859990	1456.000000	
19.879440	1264.000000	
19.898890	943.000000	
19.918340	772.000000	
19.937790	560.000000	
19.957240	425.000000	
19.976690	332.000000	
19.996140	297.000000	
20.015590	331.000000	
20.035040	291.000000	
20.054490	310.000000	
20.073940	355.000000	
20.093390	356.000000	
20.112840	351.000000	
20.132290	362.000000	
20.151740	404.000000	
20.171190	334.000000	
20.190640	355.000000	
20.210090	292.000000	
20.229540	291.000000	
20.248990	296.000000	
20.268440	271.000000	
20.287890	274.000000	
20.307340	258.000000	
20.326790	270.000000	
20.346240	288.000000	
20.365690	288.000000	
20.385140	276.000000	
20.404590	271.000000	
20.424040	239.000000	
20.443490	286.000000	
20.462940	263.000000	
20.482390	282.000000	
20.501840	299.000000	
20.521290	264.000000	
20.540740	283.000000	
20.560190	269.000000	
20.579640	288.000000	
20.599090	320.000000	
20.618540	283.000000	
20.637990	280.000000	
20.657440	265.000000	
20.676890	282.000000	
20.696340	268.000000	
20.715790	284.000000	
20.735240	270.000000	
20.754690	266.000000	
20.774140	281.000000	
20.793590	262.000000	
20.813040	301.000000	
20.832490	274.000000	
20.851940	297.000000	
20.871390	296.000000	
20.890840	303.000000	
20.910290	344.000000	
20.929740	346.000000	
20.949190	332.000000	
20.968650	359.000000	
20.988090	366.000000	
21.007550	416.000000	
21.026990	455.000000	
21.046450	555.000000	
21.065900	705.000000	
21.085350	828.000000	
21.104800	941.000000	
21.124240	1082.000000	
21.143700	1042.000000	
21.163150	920.000000	
21.182600	791.000000	
21.202050	605.000000	
21.221500	507.000000	
21.240950	371.000000	
21.260400	316.000000	
21.279850	299.000000	
21.299300	317.000000	
21.318750	272.000000	
21.338200	309.000000	
21.357650	342.000000	
21.377100	272.000000	
21.396550	320.000000	
21.416000	281.000000	
21.435450	283.000000	
21.454900	260.000000	
21.474350	274.000000	
21.493800	278.000000	
21.513250	291.000000	
21.532700	261.000000	
21.552150	318.000000	
21.571600	290.000000	
21.591050	318.000000	
21.610500	298.000000	
21.629950	281.000000	
21.649400	336.000000	
21.668850	378.000000	
21.688300	405.000000	
21.707750	455.000000	
21.727200	481.000000	
21.746650	572.000000	
21.766100	658.000000	
21.785550	847.000000	
21.805000	1018.000000	
21.824450	1314.000000	
21.843900	1698.000000	
21.863350	2013.000000	
21.882800	2350.000000	
21.902250	2300.000000	
21.921700	1697.000000	
21.941150	1347.000000	
21.960600	1033.000000	
21.980050	619.000000	
21.999500	495.000000	
22.018950	354.000000	
22.038400	320.000000	
22.057850	361.000000	
22.077300	327.000000	
22.096750	326.000000	
22.116200	305.000000	
22.135650	306.000000	
22.155100	317.000000	
22.174550	301.000000	
22.194000	301.000000	
22.213450	329.000000	
22.232900	335.000000	
22.252350	320.000000	
22.271800	316.000000	
22.291250	318.000000	
22.310700	320.000000	
22.330150	312.000000	
22.349600	303.000000	
22.369050	284.000000	
22.388500	327.000000	
22.407950	331.000000	
22.427400	341.000000	
22.446850	341.000000	
22.466300	323.000000	
22.485750	329.000000	
22.505200	369.000000	
22.524650	420.000000	
22.544100	414.000000	
22.563550	452.000000	
22.583000	533.000000	
22.602460	612.000000	
22.621900	692.000000	
22.641350	812.000000	
22.660800	943.000000	
22.680250	1209.000000	
22.699710	1589.000000	
22.719150	2165.000000	
22.738610	3280.000000	
22.758050	4712.000000	
22.777510	6070.000000	
22.796960	7981.000000	
22.816410	8994.000000	
22.835860	9662.000000	
22.855310	7825.000000	
22.874760	5785.000000	
22.894210	4425.000000	
22.913660	2750.000000	
22.933110	1563.000000	
22.952560	948.000000	
22.972010	654.000000	
22.991460	561.000000	
23.010910	563.000000	
23.030360	496.000000	
23.049810	470.000000	
23.069260	460.000000	
23.088710	397.000000	
23.108160	371.000000	
23.127610	360.000000	
23.147060	353.000000	
23.166510	350.000000	
23.185960	339.000000	
23.205410	299.000000	
23.224860	339.000000	
23.244310	270.000000	
23.263760	305.000000	
23.283210	298.000000	
23.302660	331.000000	
23.322110	295.000000	
23.341560	329.000000	
23.361010	290.000000	
23.380460	303.000000	
23.399910	302.000000	
23.419360	337.000000	
23.438810	299.000000	
23.458260	312.000000	
23.477710	279.000000	
23.497160	309.000000	
23.516610	284.000000	
23.536060	295.000000	
23.555510	280.000000	
23.574960	293.000000	
23.594410	270.000000	
23.613860	311.000000	
23.633310	289.000000	
23.652760	280.000000	
23.672210	311.000000	
23.691660	302.000000	
23.711110	270.000000	
23.730560	268.000000	
23.750010	292.000000	
23.769460	309.000000	
23.788910	291.000000	
23.808360	264.000000	
23.827810	303.000000	
23.847260	312.000000	
23.866710	341.000000	
23.886160	321.000000	
23.905610	293.000000	
23.925060	288.000000	
23.944510	286.000000	
23.963960	288.000000	
23.983410	305.000000	
24.002860	345.000000	
24.022310	338.000000	
24.041760	335.000000	
24.061210	319.000000	
24.080660	312.000000	
24.100110	282.000000	
24.119560	318.000000	
24.139010	302.000000	
24.158460	278.000000	
24.177910	286.000000	
24.197360	287.000000	
24.216810	283.000000	
24.236260	266.000000	
24.255710	264.000000	
24.275160	289.000000	
24.294610	292.000000	
24.314060	264.000000	
24.333520	285.000000	
24.352960	272.000000	
24.372420	267.000000	
24.391860	276.000000	
24.411310	267.000000	
24.430770	305.000000	
24.450210	280.000000	
24.469670	266.000000	
24.489110	291.000000	
24.508570	240.000000	
24.528020	290.000000	
24.547470	290.000000	
24.566920	300.000000	
24.586370	266.000000	
24.605820	300.000000	
24.625270	277.000000	
24.644720	290.000000	
24.664170	290.000000	
24.683620	327.000000	
24.703070	305.000000	
24.722520	292.000000	
24.741970	283.000000	
24.761420	280.000000	
24.780870	287.000000	
24.800320	300.000000	
24.819770	283.000000	
24.839220	274.000000	
24.858670	276.000000	
24.878120	308.000000	
24.897570	276.000000	
24.917020	317.000000	
24.936470	340.000000	
24.955920	324.000000	
24.975370	336.000000	
24.994820	316.000000	
25.014270	318.000000	
25.033720	320.000000	
25.053170	310.000000	
25.072620	323.000000	
25.092070	282.000000	
25.111520	301.000000	
25.130970	345.000000	
25.150420	337.000000	
25.169870	344.000000	
25.189320	333.000000	
25.208770	392.000000	
25.228220	410.000000	
25.247670	462.000000	
25.267120	494.000000	
25.286570	570.000000	
25.306020	624.000000	
25.325470	724.000000	
25.344920	807.000000	
25.364370	746.000000	
25.383820	743.000000	
25.403270	812.000000	
25.422720	819.000000	
25.442170	968.000000	
25.461620	1119.000000	
25.481070	1387.000000	
25.500520	1546.000000	
25.519970	1525.000000	
25.539420	1450.000000	
25.558870	1246.000000	
25.578320	1089.000000	
25.597770	893.000000	
25.617220	727.000000	
25.636670	618.000000	
25.656120	645.000000	
25.675570	585.000000	
25.695020	698.000000	
25.714470	753.000000	
25.733920	944.000000	
25.753370	1005.000000	
25.772820	1416.000000	
25.792270	1902.000000	
25.811720	2405.000000	
25.831170	2566.000000	
25.850620	2303.000000	
25.870070	2285.000000	
25.889520	1895.000000	
25.908970	1412.000000	
25.928420	1168.000000	
25.947870	885.000000	
25.967320	692.000000	
25.986770	533.000000	
26.006220	555.000000	
26.025670	584.000000	
26.045120	559.000000	
26.064580	536.000000	
26.084020	598.000000	
26.103480	600.000000	
26.122920	703.000000	
26.142380	832.000000	
26.161830	992.000000	
26.181280	1140.000000	
26.200730	1157.000000	
26.220170	1177.000000	
26.239630	1107.000000	
26.259080	1135.000000	
26.278530	1187.000000	
26.297980	1277.000000	
26.317430	1440.000000	
26.336880	1849.000000	
26.356330	2352.000000	
26.375780	3687.000000	
26.395230	5268.000000	
26.414680	6865.000000	
26.434130	9345.000000	
26.453580	10959.000000	
26.473030	11165.000000	
26.492480	9217.000000	
26.511930	7934.000000	
26.531380	7608.000000	
26.550830	6947.000000	
26.570280	6860.000000	
26.589730	7673.000000	
26.609180	9023.000000	
26.628630	11384.000000	
26.648080	9955.000000	
26.667530	7485.000000	
26.686980	5946.000000	
26.706430	5175.000000	
26.725880	3245.000000	
26.745330	1863.000000	
26.764780	1032.000000	
26.784230	814.000000	
26.803680	747.000000	
26.823130	647.000000	
26.842580	595.000000	
26.862030	594.000000	
26.881480	560.000000	
26.900930	549.000000	
26.920380	543.000000	
26.939830	484.000000	
26.959280	534.000000	
26.978730	484.000000	
26.998180	525.000000	
27.017630	503.000000	
27.037080	474.000000	
27.056530	518.000000	
27.075980	547.000000	
27.095430	605.000000	
27.114880	610.000000	
27.134330	726.000000	
27.153780	924.000000	
27.173230	1176.000000	
27.192680	1450.000000	
27.212130	1946.000000	
27.231580	2333.000000	
27.251030	2808.000000	
27.270480	3547.000000	
27.289930	3689.000000	
27.309380	3418.000000	
27.328830	3065.000000	
27.348280	2689.000000	
27.367730	2067.000000	
27.387180	1628.000000	
27.406630	1360.000000	
27.426080	1173.000000	
27.445530	1070.000000	
27.464980	1131.000000	
27.484430	1514.000000	
27.503880	1786.000000	
27.523330	2180.000000	
27.542780	3342.000000	
27.562230	5021.000000	
27.581680	6756.000000	
27.601130	8825.000000	
27.620580	11496.000000	
27.640030	11182.000000	
27.659480	8289.000000	
27.678930	6693.000000	
27.698390	5841.000000	
27.717830	4258.000000	
27.737280	2318.000000	
27.756730	1260.000000	
27.776180	874.000000	
27.795640	690.000000	
27.815080	625.000000	
27.834540	591.000000	
27.853980	530.000000	
27.873440	488.000000	
27.892890	467.000000	
27.912340	427.000000	
27.931790	390.000000	
27.951240	443.000000	
27.970690	402.000000	
27.990140	403.000000	
28.009590	384.000000	
28.029040	363.000000	
28.048490	376.000000	
28.067940	381.000000	
28.087390	358.000000	
28.106840	365.000000	
28.126290	393.000000	
28.145740	378.000000	
28.165190	331.000000	
28.184640	354.000000	
28.204090	336.000000	
28.223540	353.000000	
28.242990	334.000000	
28.262440	338.000000	
28.281890	340.000000	
28.301340	339.000000	
28.320790	326.000000	
28.340240	341.000000	
28.359690	359.000000	
28.379140	354.000000	
28.398590	308.000000	
28.418040	336.000000	
28.437490	350.000000	
28.456940	349.000000	
28.476390	364.000000	
28.495840	356.000000	
28.515290	300.000000	
28.534740	334.000000	
28.554190	326.000000	
28.573640	339.000000	
28.593090	339.000000	
28.612540	332.000000	
28.631990	325.000000	
28.651440	335.000000	
28.670890	320.000000	
28.690340	340.000000	
28.709790	378.000000	
28.729240	335.000000	
28.748690	313.000000	
28.768140	341.000000	
28.787590	314.000000	
28.807040	296.000000	
28.826490	318.000000	
28.845940	308.000000	
28.865390	302.000000	
28.884840	328.000000	
28.904290	311.000000	
28.923740	309.000000	
28.943190	317.000000	
28.962640	303.000000	
28.982090	341.000000	
29.001540	313.000000	
29.020990	329.000000	
29.040440	334.000000	
29.059890	307.000000	
29.079340	353.000000	
29.098790	327.000000	
29.118240	334.000000	
29.137690	351.000000	
29.157140	319.000000	
29.176590	311.000000	
29.196040	304.000000	
29.215490	283.000000	
29.234940	316.000000	
29.254390	303.000000	
29.273840	307.000000	
29.293290	333.000000	
29.312740	305.000000	
29.332190	305.000000	
29.351640	300.000000	
29.371090	341.000000	
29.390540	329.000000	
29.409990	308.000000	
29.429450	295.000000	
29.448890	355.000000	
29.468350	400.000000	
29.487790	435.000000	
29.507250	467.000000	
29.526700	506.000000	
29.546140	511.000000	
29.565600	517.000000	
29.585040	518.000000	
29.604500	492.000000	
29.623950	395.000000	
29.643400	453.000000	
29.662850	397.000000	
29.682300	398.000000	
29.701750	377.000000	
29.721200	427.000000	
29.740650	428.000000	
29.760100	498.000000	
29.779550	586.000000	
29.799000	718.000000	
29.818450	927.000000	
29.837900	1226.000000	
29.857350	1541.000000	
29.876800	1674.000000	
29.896250	1705.000000	
29.915700	1264.000000	
29.935150	1075.000000	
29.954600	930.000000	
29.974050	827.000000	
29.993500	604.000000	
30.012950	376.000000	
30.032400	374.000000	
30.051850	334.000000	
30.071300	350.000000	
30.090750	318.000000	
30.110200	330.000000	
30.129650	319.000000	
30.149100	323.000000	
30.168550	336.000000	
30.188000	322.000000	
30.207450	361.000000	
30.226900	371.000000	
30.246350	337.000000	
30.265800	401.000000	
30.285250	406.000000	
30.304700	393.000000	
30.324150	424.000000	
30.343600	365.000000	
30.363050	403.000000	
30.382500	375.000000	
30.401950	404.000000	
30.421400	362.000000	
30.440850	391.000000	
30.460300	479.000000	
30.479750	538.000000	
30.499200	605.000000	
30.518650	661.000000	
30.538100	833.000000	
30.557550	793.000000	
30.577000	711.000000	
30.596450	567.000000	
30.615900	600.000000	
30.635350	539.000000	
30.654800	422.000000	
30.674250	386.000000	
30.693700	316.000000	
30.713150	323.000000	
30.732600	317.000000	
30.752050	295.000000	
30.771500	325.000000	
30.790950	278.000000	
30.810400	304.000000	
30.829850	288.000000	
30.849300	301.000000	
30.868750	298.000000	
30.888200	297.000000	
30.907650	306.000000	
30.927100	300.000000	
30.946550	292.000000	
30.966000	308.000000	
30.985450	293.000000	
31.004900	321.000000	
31.024350	311.000000	
31.043800	307.000000	
31.063250	321.000000	
31.082700	319.000000	
31.102150	314.000000	
31.121600	313.000000	
31.141050	351.000000	
31.160510	342.000000	
31.179950	310.000000	
31.199410	358.000000	
31.218850	358.000000	
31.238310	366.000000	
31.257760	387.000000	
31.277210	449.000000	
31.296660	500.000000	
31.316100	553.000000	
31.335560	693.000000	
31.355010	871.000000	
31.374460	1144.000000	
31.393910	1458.000000	
31.413360	1891.000000	
31.432810	2564.000000	
31.452260	3222.000000	
31.471710	3400.000000	
31.491160	3905.000000	
31.510610	5055.000000	
31.530060	5507.000000	
31.549510	3903.000000	
31.568960	2870.000000	
31.588410	2467.000000	
31.607860	2530.000000	
31.627310	1779.000000	
31.646760	1023.000000	
31.666210	628.000000	
31.685660	525.000000	
31.705110	474.000000	
31.724560	443.000000	
31.744010	425.000000	
31.763460	407.000000	
31.782910	355.000000	
31.802360	361.000000	
31.821810	342.000000	
31.841260	327.000000	
31.860710	329.000000	
31.880160	360.000000	
31.899610	352.000000	
31.919060	348.000000	
31.938510	284.000000	
31.957960	323.000000	
31.977410	344.000000	
31.996860	323.000000	
32.016310	299.000000	
32.035760	342.000000	
32.055210	350.000000	
32.074660	339.000000	
32.094110	321.000000	
32.113560	310.000000	
32.133010	325.000000	
32.152460	373.000000	
32.171910	383.000000	
32.191360	398.000000	
32.210810	486.000000	
32.230260	507.000000	
32.249710	531.000000	
32.269160	604.000000	
32.288610	543.000000	
32.308060	560.000000	
32.327510	489.000000	
32.346960	492.000000	
32.366410	427.000000	
32.385860	401.000000	
32.405310	367.000000	
32.424760	386.000000	
32.444210	402.000000	
32.463660	398.000000	
32.483110	452.000000	
32.502560	479.000000	
32.522010	446.000000	
32.541460	431.000000	
32.560910	523.000000	
32.580360	530.000000	
32.599810	555.000000	
32.619260	667.000000	
32.638710	750.000000	
32.658160	858.000000	
32.677610	1171.000000	
32.697060	1472.000000	
32.716510	2076.000000	
32.735970	2729.000000	
32.755410	3879.000000	
32.774860	5024.000000	
32.794320	5423.000000	
32.813770	3820.000000	
32.833210	2777.000000	
32.852660	2858.000000	
32.872120	2801.000000	
32.891560	1992.000000	
32.911010	1173.000000	
32.930470	660.000000	
32.949920	467.000000	
32.969360	461.000000	
32.988820	395.000000	
33.008270	357.000000	
33.027720	376.000000	
33.047160	384.000000	
33.066620	349.000000	
33.086070	306.000000	
33.105510	375.000000	
33.124970	325.000000	
33.144420	318.000000	
33.163870	329.000000	
33.183320	292.000000	
33.202770	322.000000	
33.222220	340.000000	
33.241670	315.000000	
33.261120	312.000000	
33.280570	349.000000	
33.300020	388.000000	
33.319470	408.000000	
33.338920	417.000000	
33.358370	490.000000	
33.377820	496.000000	
33.397270	621.000000	
33.416720	801.000000	
33.436170	976.000000	
33.455620	1157.000000	
33.475070	949.000000	
33.494520	801.000000	
33.513970	752.000000	
33.533420	723.000000	
33.552870	605.000000	
33.572320	534.000000	
33.591770	426.000000	
33.611220	374.000000	
33.630670	340.000000	
33.650120	303.000000	
33.669570	293.000000	
33.689020	293.000000	
33.708470	301.000000	
33.727920	292.000000	
33.747370	311.000000	
33.766820	271.000000	
33.786270	289.000000	
33.805720	298.000000	
33.825170	301.000000	
33.844620	300.000000	
33.864070	306.000000	
33.883520	321.000000	
33.902970	280.000000	
33.922420	326.000000	
33.941870	262.000000	
33.961320	305.000000	
33.980770	308.000000	
34.000220	344.000000	
34.019670	309.000000	
34.039120	322.000000	
34.058570	293.000000	
34.078020	270.000000	
34.097470	322.000000	
34.116920	299.000000	
34.136370	282.000000	
34.155820	322.000000	
34.175270	274.000000	
34.194720	289.000000	
34.214170	297.000000	
34.233620	301.000000	
34.253070	339.000000	
34.272520	334.000000	
34.291970	375.000000	
34.311420	398.000000	
34.330880	451.000000	
34.350320	550.000000	
34.369770	670.000000	
34.389230	821.000000	
34.408670	1114.000000	
34.428120	1266.000000	
34.447570	1199.000000	
34.467030	924.000000	
34.486470	769.000000	
34.505920	782.000000	
34.525380	739.000000	
34.544830	687.000000	
34.564270	451.000000	
34.583720	390.000000	
34.603180	358.000000	
34.622620	369.000000	
34.642070	371.000000	
34.661530	369.000000	
34.680980	396.000000	
34.700420	446.000000	
34.719880	500.000000	
34.739330	598.000000	
34.758780	780.000000	
34.778220	991.000000	
34.797680	1263.000000	
34.817130	1368.000000	
34.836580	1086.000000	
34.856030	852.000000	
34.875480	805.000000	
34.894930	855.000000	
34.914380	828.000000	
34.933830	632.000000	
34.953280	449.000000	
34.972730	422.000000	
34.992180	348.000000	
35.011630	384.000000	
35.031080	401.000000	
35.050530	306.000000	
35.069980	327.000000	
35.089430	300.000000	
35.108880	329.000000	
35.128330	301.000000	
35.147780	348.000000	
35.167230	347.000000	
35.186680	332.000000	
35.206130	317.000000	
35.225580	300.000000	
35.245030	308.000000	
35.264480	352.000000	
35.283930	397.000000	
35.303380	457.000000	
35.322830	493.000000	
35.342280	563.000000	
35.361730	611.000000	
35.381180	620.000000	
35.400630	556.000000	
35.420080	570.000000	
35.439530	451.000000	
35.458980	444.000000	
35.478430	445.000000	
35.497880	392.000000	
35.517330	348.000000	
35.536780	320.000000	
35.556230	318.000000	
35.575680	307.000000	
35.595130	335.000000	
35.614580	315.000000	
35.634030	324.000000	
35.653480	338.000000	
35.672930	328.000000	
35.692380	363.000000	
35.711830	376.000000	
35.731280	388.000000	
35.750730	433.000000	
35.770180	488.000000	
35.789630	535.000000	
35.809080	574.000000	
35.828530	767.000000	
35.847980	988.000000	
35.867430	1424.000000	
35.886880	1911.000000	
35.906330	2578.000000	
35.925780	3022.000000	
35.945230	3157.000000	
35.964680	2209.000000	
35.984130	1725.000000	
36.003580	1706.000000	
36.023030	1835.000000	
36.042480	1622.000000	
36.061940	1103.000000	
36.081380	915.000000	
36.100830	936.000000	
36.120290	1055.000000	
36.139740	1368.000000	
36.159180	1861.000000	
36.178630	2407.000000	
36.198090	3295.000000	
36.217530	4533.000000	
36.236980	3995.000000	
36.256440	2583.000000	
36.275890	1944.000000	
36.295330	2111.000000	
36.314790	2333.000000	
36.334240	1799.000000	
36.353690	1086.000000	
36.373130	667.000000	
36.392590	538.000000	
36.412040	503.000000	
36.431480	522.000000	
36.450940	520.000000	
36.470390	626.000000	
36.489840	761.000000	
36.509280	807.000000	
36.528740	1102.000000	
36.548190	1067.000000	
36.567640	944.000000	
36.587090	682.000000	
36.606540	654.000000	
36.625990	737.000000	
36.645440	698.000000	
36.664890	582.000000	
36.684340	526.000000	
36.703790	491.000000	
36.723240	490.000000	
36.742690	536.000000	
36.762140	685.000000	
36.781590	681.000000	
36.801040	739.000000	
36.820490	684.000000	
36.839940	579.000000	
36.859390	592.000000	
36.878840	589.000000	
36.898290	508.000000	
36.917740	518.000000	
36.937190	399.000000	
36.956640	385.000000	
36.976090	337.000000	
36.995540	347.000000	
37.014990	323.000000	
37.034440	330.000000	
37.053890	333.000000	
37.073340	331.000000	
37.092790	347.000000	
37.112240	345.000000	
37.131690	355.000000	
37.151140	345.000000	
37.170590	345.000000	
37.190040	362.000000	
37.209490	380.000000	
37.228940	372.000000	
37.248390	383.000000	
37.267840	390.000000	
37.287290	346.000000	
37.306740	363.000000	
37.326190	379.000000	
37.345640	352.000000	
37.365090	398.000000	
37.384540	380.000000	
37.403990	431.000000	
37.423440	466.000000	
37.442890	456.000000	
37.462340	533.000000	
37.481790	606.000000	
37.501240	701.000000	
37.520690	760.000000	
37.540140	1029.000000	
37.559590	1277.000000	
37.579040	1576.000000	
37.598490	1783.000000	
37.617940	2162.000000	
37.637390	3034.000000	
37.656850	4144.000000	
37.676290	5791.000000	
37.695740	7972.000000	
37.715190	10928.000000	
37.734640	12293.000000	
37.754090	10026.000000	
37.773540	6938.000000	
37.793000	5585.000000	
37.812440	6051.000000	
37.831890	6651.000000	
37.851350	5411.000000	
37.870800	3681.000000	
37.890240	2761.000000	
37.909690	2324.000000	
37.929150	1943.000000	
37.948590	1534.000000	
37.968040	1244.000000	
37.987500	1252.000000	
38.006950	1169.000000	
38.026390	983.000000	
38.045850	683.000000	
38.065300	534.000000	
38.084750	522.000000	
38.104190	451.000000	
38.123650	416.000000	
38.143100	421.000000	
38.162550	373.000000	
38.182000	400.000000	
38.201450	362.000000	
38.220900	372.000000	
38.240350	368.000000	
38.259800	355.000000	
38.279250	327.000000	
38.298700	354.000000	
38.318150	326.000000	
38.337600	350.000000	
38.357050	343.000000	
38.376500	326.000000	
38.395950	335.000000	
38.415400	303.000000	
38.434850	348.000000	
38.454300	335.000000	
38.473750	335.000000	
38.493200	341.000000	
38.512650	339.000000	
38.532100	318.000000	
38.551550	296.000000	
38.571000	290.000000	
38.590450	304.000000	
38.609900	356.000000	
38.629350	322.000000	
38.648800	328.000000	
38.668250	351.000000	
38.687700	289.000000	
38.707150	324.000000	
38.726600	308.000000	
38.746050	353.000000	
38.765500	287.000000	
38.784950	308.000000	
38.804400	326.000000	
38.823850	314.000000	
38.843300	275.000000	
38.862750	300.000000	
38.882200	334.000000	
38.901650	347.000000	
38.921100	364.000000	
38.940550	358.000000	
38.960000	377.000000	
38.979450	351.000000	
38.998900	367.000000	
39.018350	350.000000	
39.037800	337.000000	
39.057250	346.000000	
39.076700	328.000000	
39.096150	345.000000	
39.115600	300.000000	
39.135050	310.000000	
39.154500	356.000000	
39.173950	321.000000	
39.193400	301.000000	
39.212850	346.000000	
39.232300	314.000000	
39.251750	345.000000	
39.271200	332.000000	
39.290650	378.000000	
39.310100	409.000000	
39.329550	486.000000	
39.349000	485.000000	
39.368450	481.000000	
39.387910	504.000000	
39.407350	450.000000	
39.426800	490.000000	
39.446250	545.000000	
39.465710	631.000000	
39.485150	762.000000	
39.504600	927.000000	
39.524060	1089.000000	
39.543500	1644.000000	
39.562950	1887.000000	
39.582410	2061.000000	
39.601860	1587.000000	
39.621300	1202.000000	
39.640750	1103.000000	
39.660210	1106.000000	
39.679660	1148.000000	
39.699100	961.000000	
39.718560	764.000000	
39.738010	635.000000	
39.757450	540.000000	
39.776910	528.000000	
39.796360	617.000000	
39.815810	528.000000	
39.835250	539.000000	
39.854710	478.000000	
39.874160	466.000000	
39.893610	500.000000	
39.913060	479.000000	
39.932510	470.000000	
39.951960	435.000000	
39.971410	443.000000	
39.990860	474.000000	
40.010310	468.000000	
40.029760	494.000000	
40.049210	581.000000	
40.068660	669.000000	
40.088110	985.000000	
40.107560	1195.000000	
40.127010	1383.000000	
40.146460	1465.000000	
40.165910	1180.000000	
40.185360	942.000000	
40.204810	851.000000	
40.224260	880.000000	
40.243710	923.000000	
40.263160	836.000000	
40.282610	614.000000	
40.302060	491.000000	
40.321510	416.000000	
40.340960	378.000000	
40.360410	407.000000	
40.379860	363.000000	
40.399310	376.000000	
40.418760	295.000000	
40.438210	311.000000	
40.457660	325.000000	
40.477110	324.000000	
40.496560	350.000000	
40.516010	328.000000	
40.535460	371.000000	
40.554910	368.000000	
40.574360	425.000000	
40.593810	468.000000	
40.613260	554.000000	
40.632710	697.000000	
40.652160	929.000000	
40.671610	1090.000000	
40.691060	1211.000000	
40.710510	1332.000000	
40.729960	1181.000000	
40.749410	939.000000	
40.768860	798.000000	
40.788310	812.000000	
40.807760	772.000000	
40.827210	766.000000	
40.846660	643.000000	
40.866110	446.000000	
40.885560	426.000000	
40.905010	408.000000	
40.924460	411.000000	
40.943910	374.000000	
40.963360	405.000000	
40.982810	374.000000	
41.002260	387.000000	
41.021710	387.000000	
41.041160	370.000000	
41.060610	387.000000	
41.080060	406.000000	
41.099510	374.000000	
41.118970	398.000000	
41.138410	465.000000	
41.157860	518.000000	
41.177310	677.000000	
41.196770	860.000000	
41.216210	1155.000000	
41.235660	1382.000000	
41.255120	1517.000000	
41.274560	1373.000000	
41.294010	1075.000000	
41.313470	889.000000	
41.332920	908.000000	
41.352360	912.000000	
41.371810	833.000000	
41.391270	758.000000	
41.410720	586.000000	
41.430160	425.000000	
41.449620	364.000000	
41.469070	355.000000	
41.488520	370.000000	
41.507970	363.000000	
41.527420	360.000000	
41.546870	377.000000	
41.566310	443.000000	
41.585770	487.000000	
41.605220	584.000000	
41.624670	697.000000	
41.644120	846.000000	
41.663570	928.000000	
41.683020	985.000000	
41.702470	882.000000	
41.721920	651.000000	
41.741370	551.000000	
41.760820	650.000000	
41.780270	608.000000	
41.799720	618.000000	
41.819170	457.000000	
41.838620	361.000000	
41.858070	323.000000	
41.877520	312.000000	
41.896970	321.000000	
41.916420	309.000000	
41.935870	294.000000	
41.955320	277.000000	
41.974770	331.000000	
41.994220	298.000000	
42.013670	292.000000	
42.033120	296.000000	
42.052570	279.000000	
42.072020	282.000000	
42.091470	299.000000	
42.110920	335.000000	
42.130370	309.000000	
42.149820	284.000000	
42.169270	297.000000	
42.188720	336.000000	
42.208170	382.000000	
42.227620	425.000000	
42.247070	515.000000	
42.266520	648.000000	
42.285970	803.000000	
42.305420	1029.000000	
42.324870	1221.000000	
42.344320	1216.000000	
42.363770	820.000000	
42.383220	683.000000	
42.402670	637.000000	
42.422120	732.000000	
42.441570	743.000000	
42.461020	668.000000	
42.480470	489.000000	
42.499920	356.000000	
42.519370	304.000000	
42.538820	334.000000	
42.558270	329.000000	
42.577720	345.000000	
42.597170	302.000000	
42.616620	296.000000	
42.636070	303.000000	
42.655520	319.000000	
42.674970	325.000000	
42.694420	316.000000	
42.713870	284.000000	
42.733320	316.000000	
42.752770	296.000000	
42.772220	324.000000	
42.791670	314.000000	
42.811120	318.000000	
42.830570	310.000000	
42.850030	317.000000	
42.869470	323.000000	
42.888920	394.000000	
42.908370	395.000000	
42.927830	420.000000	
42.947270	441.000000	
42.966720	581.000000	
42.986180	829.000000	
43.005630	1126.000000	
43.025070	1407.000000	
43.044530	1698.000000	
43.063980	1702.000000	
43.083420	1366.000000	
43.102870	1057.000000	
43.122330	964.000000	
43.141780	985.000000	
43.161220	1017.000000	
43.180680	896.000000	
43.200130	746.000000	
43.219580	545.000000	
43.239030	375.000000	
43.258480	391.000000	
43.277930	344.000000	
43.297380	324.000000	
43.316830	291.000000	
43.336280	343.000000	
43.355730	304.000000	
43.375180	316.000000	
43.394630	275.000000	
43.414080	284.000000	
43.433530	286.000000	
43.452980	293.000000	
43.472430	306.000000	
43.491880	255.000000	
43.511330	306.000000	
43.530780	317.000000	
43.550230	319.000000	
43.569680	361.000000	
43.589130	341.000000	
43.608580	448.000000	
43.628030	418.000000	
43.647480	537.000000	
43.666930	613.000000	
43.686380	665.000000	
43.705830	645.000000	
43.725280	571.000000	
43.744730	492.000000	
43.764180	491.000000	
43.783630	520.000000	
43.803080	549.000000	
43.822530	545.000000	
43.841980	502.000000	
43.861430	426.000000	
43.880880	391.000000	
43.900330	339.000000	
43.919780	369.000000	
43.939230	365.000000	
43.958680	385.000000	
43.978130	372.000000	
43.997580	347.000000	
44.017030	330.000000	
44.036480	330.000000	
44.055930	389.000000	
44.075380	416.000000	
44.094830	390.000000	
44.114280	472.000000	
44.133730	516.000000	
44.153180	645.000000	
44.172630	807.000000	
44.192080	1239.000000	
44.211530	1820.000000	
44.230980	1954.000000	
44.250430	2211.000000	
44.269880	1713.000000	
44.289330	1145.000000	
44.308780	1065.000000	
44.328230	1280.000000	
44.347680	1443.000000	
44.367130	1552.000000	
44.386580	1334.000000	
44.406030	1081.000000	
44.425480	1026.000000	
44.444930	909.000000	
44.464380	845.000000	
44.483830	874.000000	
44.503280	1059.000000	
44.522740	1405.000000	
44.542180	1844.000000	
44.561630	2586.000000	
44.581090	3373.000000	
44.600530	4048.000000	
44.619980	4358.000000	
44.639430	3436.000000	
44.658890	2504.000000	
44.678330	1959.000000	
44.697780	2019.000000	
44.717240	2321.000000	
44.736690	2271.000000	
44.756130	1828.000000	
44.775590	1219.000000	
44.795040	742.000000	
44.814490	530.000000	
44.833930	425.000000	
44.853390	396.000000	
44.872840	421.000000	
44.892280	349.000000	
44.911740	346.000000	
44.931190	319.000000	
44.950640	320.000000	
44.970090	357.000000	
44.989540	305.000000	
45.008990	326.000000	
45.028440	299.000000	
45.047890	286.000000	
45.067340	292.000000	
45.086790	283.000000	
45.106240	305.000000	
45.125690	274.000000	
45.145140	310.000000	
45.164590	283.000000	
45.184040	238.000000	
45.203490	316.000000	
45.222940	252.000000	
45.242390	286.000000	
45.261840	312.000000	
45.281290	279.000000	
45.300740	284.000000	
45.320190	265.000000	
45.339640	254.000000	
45.359090	291.000000	
45.378540	283.000000	
45.397990	276.000000	
45.417440	285.000000	
45.436890	266.000000	
45.456340	262.000000	
45.475790	310.000000	
45.495240	272.000000	
45.514690	274.000000	
45.534140	311.000000	
45.553590	302.000000	
45.573040	263.000000	
45.592490	262.000000	
45.611940	259.000000	
45.631390	271.000000	
45.650840	283.000000	
45.670290	270.000000	
45.689740	267.000000	
45.709190	281.000000	
45.728640	270.000000	
45.748090	288.000000	
45.767540	266.000000	
45.786990	260.000000	
45.806440	301.000000	
45.825890	294.000000	
45.845340	270.000000	
45.864790	346.000000	
45.884240	362.000000	
45.903690	422.000000	
45.923140	548.000000	
45.942590	616.000000	
45.962040	524.000000	
45.981490	468.000000	
46.000940	402.000000	
46.020390	405.000000	
46.039840	494.000000	
46.059290	507.000000	
46.078740	616.000000	
46.098190	727.000000	
46.117640	847.000000	
46.137090	740.000000	
46.156540	635.000000	
46.175990	483.000000	
46.195440	468.000000	
46.214890	520.000000	
46.234340	494.000000	
46.253800	534.000000	
46.273240	539.000000	
46.292690	413.000000	
46.312150	380.000000	
46.331600	397.000000	
46.351040	387.000000	
46.370490	494.000000	
46.389950	513.000000	
46.409390	724.000000	
46.428840	792.000000	
46.448300	755.000000	
46.467750	674.000000	
46.487190	639.000000	
46.506650	607.000000	
46.526100	663.000000	
46.545550	712.000000	
46.564990	803.000000	
46.584450	722.000000	
46.603900	652.000000	
46.623340	566.000000	
46.642800	477.000000	
46.662250	446.000000	
46.681700	430.000000	
46.701150	432.000000	
46.720600	407.000000	
46.740050	345.000000	
46.759500	307.000000	
46.778950	316.000000	
46.798400	278.000000	
46.817850	280.000000	
46.837300	298.000000	
46.856750	291.000000	
46.876200	281.000000	
46.895650	271.000000	
46.915100	274.000000	
46.934550	295.000000	
46.954000	284.000000	
46.973450	270.000000	
46.992900	290.000000	
47.012350	256.000000	
47.031800	270.000000	
47.051250	312.000000	
47.070700	283.000000	
47.090150	311.000000	
47.109600	284.000000	
47.129050	295.000000	
47.148500	342.000000	
47.167950	366.000000	
47.187400	436.000000	
47.206850	460.000000	
47.226300	473.000000	
47.245750	486.000000	
47.265200	400.000000	
47.284650	349.000000	
47.304100	365.000000	
47.323550	361.000000	
47.343000	401.000000	
47.362450	372.000000	
47.381900	318.000000	
47.401350	278.000000	
47.420800	277.000000	
47.440250	281.000000	
47.459700	281.000000	
47.479150	272.000000	
47.498600	249.000000	
47.518050	241.000000	
47.537500	265.000000	
47.556950	263.000000	
47.576400	239.000000	
47.595850	248.000000	
47.615300	225.000000	
47.634750	258.000000	
47.654200	266.000000	
47.673650	250.000000	
47.693100	259.000000	
47.712550	277.000000	
47.732000	284.000000	
47.751450	267.000000	
47.770900	292.000000	
47.790350	297.000000	
47.809800	293.000000	
47.829250	297.000000	
47.848710	259.000000	
47.868150	246.000000	
47.887600	261.000000	
47.907050	288.000000	
47.926500	271.000000	
47.945950	343.000000	
47.965400	311.000000	
47.984860	321.000000	
48.004300	285.000000	
48.023750	315.000000	
48.043210	320.000000	
48.062660	371.000000	
48.082100	431.000000	
48.101550	491.000000	
48.121010	632.000000	
48.140460	965.000000	
48.159900	1262.000000	
48.179360	1591.000000	
48.198810	1635.000000	
48.218250	1242.000000	
48.237710	912.000000	
48.257160	713.000000	
48.276610	807.000000	
48.296050	956.000000	
48.315510	1035.000000	
48.334960	1017.000000	
48.354410	724.000000	
48.373860	526.000000	
48.393310	396.000000	
48.412760	359.000000	
48.432210	365.000000	
48.451660	407.000000	
48.471110	361.000000	
48.490560	349.000000	
48.510010	305.000000	
48.529460	327.000000	
48.548910	341.000000	
48.568360	340.000000	
48.587810	352.000000	
48.607260	444.000000	
48.626710	451.000000	
48.646160	533.000000	
48.665610	650.000000	
48.685060	696.000000	
48.704510	580.000000	
48.723960	479.000000	
48.743410	440.000000	
48.762860	383.000000	
48.782310	429.000000	
48.801760	448.000000	
48.821210	440.000000	
48.840660	344.000000	
48.860110	285.000000	
48.879560	292.000000	
48.899010	281.000000	
48.918460	269.000000	
48.937910	273.000000	
48.957360	268.000000	
48.976810	260.000000	
48.996260	259.000000	
49.015710	253.000000	
49.035160	243.000000	
49.054610	258.000000	
49.074060	262.000000	
49.093510	284.000000	
49.112960	293.000000	
49.132410	238.000000	
49.151860	275.000000	
49.171310	248.000000	
49.190760	245.000000	
49.210210	293.000000	
49.229660	267.000000	
49.249110	260.000000	
49.268560	235.000000	
49.288010	264.000000	
49.307460	267.000000	
49.326910	244.000000	
49.346360	243.000000	
49.365810	268.000000	
49.385260	264.000000	
49.404710	283.000000	
49.424160	319.000000	
49.443610	263.000000	
49.463060	276.000000	
49.482510	270.000000	
49.501960	260.000000	
49.521410	262.000000	
49.540860	259.000000	
49.560310	276.000000	
49.579770	287.000000	
49.599210	262.000000	
49.618660	283.000000	
49.638110	260.000000	
49.657570	241.000000	
49.677010	279.000000	
49.696460	306.000000	
49.715920	353.000000	
49.735360	371.000000	
49.754810	371.000000	
49.774270	328.000000	
49.793720	339.000000	
49.813160	324.000000	
49.832610	302.000000	
49.852070	320.000000	
49.871520	316.000000	
49.890960	297.000000	
49.910420	333.000000	
49.929870	302.000000	
49.949310	327.000000	
49.968770	279.000000	
49.988220	293.000000	
50.007670	318.000000	
50.027110	360.000000	
50.046570	350.000000	
50.066020	397.000000	
50.085470	456.000000	
50.104920	405.000000	
50.124370	491.000000	
50.143820	656.000000	
50.163270	695.000000	
50.182720	827.000000	
50.202170	711.000000	
50.221620	599.000000	
50.241070	471.000000	
50.260520	434.000000	
50.279970	484.000000	
50.299420	529.000000	
50.318870	586.000000	
50.338320	643.000000	
50.357770	620.000000	
50.377220	583.000000	
50.396670	602.000000	
50.416120	466.000000	
50.435570	382.000000	
50.455020	360.000000	
50.474470	363.000000	
50.493920	421.000000	
50.513370	467.000000	
50.532820	428.000000	
50.552270	420.000000	
50.571720	399.000000	
50.591170	366.000000	
50.610620	419.000000	
50.630070	494.000000	
50.649520	534.000000	
50.668970	671.000000	
50.688420	939.000000	
50.707870	1261.000000	
50.727320	1712.000000	
50.746770	1756.000000	
50.766220	1614.000000	
50.785670	1189.000000	
50.805120	879.000000	
50.824570	932.000000	
50.844020	1140.000000	
50.863470	1165.000000	
50.882920	1133.000000	
50.902370	999.000000	
50.921820	697.000000	
50.941270	516.000000	
50.960720	460.000000	
50.980170	434.000000	
50.999620	427.000000	
51.019070	365.000000	
51.038520	298.000000	
51.057970	312.000000	
51.077420	307.000000	
51.096870	294.000000	
51.116320	276.000000	
51.135770	263.000000	
51.155220	262.000000	
51.174670	294.000000	
51.194120	275.000000	
51.213570	261.000000	
51.233020	263.000000	
51.252470	254.000000	
51.271920	249.000000	
51.291370	282.000000	
51.310830	281.000000	
51.330270	253.000000	
51.349720	314.000000	
51.369170	248.000000	
51.388630	268.000000	
51.408070	280.000000	
51.427520	261.000000	
51.446980	290.000000	
51.466430	290.000000	
51.485870	325.000000	
51.505330	330.000000	
51.524780	327.000000	
51.544220	321.000000	
51.563670	284.000000	
51.583130	323.000000	
51.602580	261.000000	
51.622020	307.000000	
51.641480	265.000000	
51.660930	305.000000	
51.680380	290.000000	
51.699830	314.000000	
51.719280	298.000000	
51.738730	284.000000	
51.758170	291.000000	
51.777630	297.000000	
51.797080	318.000000	
51.816530	280.000000	
51.835980	312.000000	
51.855430	275.000000	
51.874880	310.000000	
51.894330	306.000000	
51.913780	344.000000	
51.933230	377.000000	
51.952680	419.000000	
51.972130	547.000000	
51.991580	685.000000	
52.011030	866.000000	
52.030480	996.000000	
52.049930	818.000000	
52.069380	759.000000	
52.088830	595.000000	
52.108280	509.000000	
52.127730	529.000000	
52.147180	556.000000	
52.166630	622.000000	
52.186080	606.000000	
52.205530	530.000000	
52.224980	428.000000	
52.244430	349.000000	
52.263880	316.000000	
52.283330	309.000000	
52.302780	310.000000	
52.322230	280.000000	
52.341680	301.000000	
52.361130	349.000000	
52.380580	310.000000	
52.400030	308.000000	
52.419480	255.000000	
52.438930	313.000000	
52.458380	313.000000	
52.477830	380.000000	
52.497280	399.000000	
52.516730	489.000000	
52.536180	562.000000	
52.555630	828.000000	
52.575080	997.000000	
52.594530	1188.000000	
52.613980	1373.000000	
52.633430	1127.000000	
52.652880	788.000000	
52.672330	603.000000	
52.691780	636.000000	
52.711230	688.000000	
52.730680	794.000000	
52.750130	917.000000	
52.769580	855.000000	
52.789030	867.000000	
52.808480	839.000000	
52.827930	1095.000000	
52.847380	1308.000000	
52.866830	1644.000000	
52.886280	1510.000000	
52.905740	1226.000000	
52.925180	889.000000	
52.944630	714.000000	
52.964080	689.000000	
52.983540	851.000000	
53.002980	1004.000000	
53.022430	985.000000	
53.041890	873.000000	
53.061330	678.000000	
53.080780	557.000000	
53.100230	493.000000	
53.119690	456.000000	
53.139130	438.000000	
53.158580	398.000000	
53.178040	457.000000	
53.197490	424.000000	
53.216930	477.000000	
53.236390	478.000000	
53.255840	484.000000	
53.275280	525.000000	
53.294730	588.000000	
53.314190	728.000000	
53.333640	974.000000	
53.353080	1445.000000	
53.372540	2221.000000	
53.391990	2784.000000	
53.411440	3403.000000	
53.430890	2615.000000	
53.450340	1859.000000	
53.469790	1249.000000	
53.489240	1108.000000	
53.508690	1296.000000	
53.528140	1581.000000	
53.547590	1900.000000	
53.567040	1858.000000	
53.586490	1596.000000	
53.605940	1351.000000	
53.625390	1488.000000	
53.644840	1995.000000	
53.664290	2299.000000	
53.683740	2322.000000	
53.703190	1919.000000	
53.722640	1488.000000	
53.742090	1052.000000	
53.761540	928.000000	
53.780990	1084.000000	
53.800440	1253.000000	
53.819890	1325.000000	
53.839340	1205.000000	
53.858790	932.000000	
53.878240	713.000000	
53.897690	547.000000	
53.917140	479.000000	
53.936590	447.000000	
53.956040	421.000000	
53.975490	356.000000	
53.994940	330.000000	
54.014390	366.000000	
54.033840	337.000000	
54.053290	373.000000	
54.072740	340.000000	
54.092190	366.000000	
54.111640	323.000000	
54.131090	383.000000	
54.150540	367.000000	
54.169990	461.000000	
54.189440	495.000000	
54.208890	611.000000	
54.228340	790.000000	
54.247790	888.000000	
54.267240	913.000000	
54.286690	776.000000	
54.306140	543.000000	
54.325590	497.000000	
54.345040	457.000000	
54.364490	560.000000	
54.383940	616.000000	
54.403390	681.000000	
54.422840	674.000000	
54.442290	614.000000	
54.461740	541.000000	
54.481190	454.000000	
54.500640	371.000000	
54.520090	308.000000	
54.539540	345.000000	
54.558990	374.000000	
54.578440	361.000000	
54.597890	324.000000	
54.617340	299.000000	
54.636800	301.000000	
54.656240	300.000000	
54.675690	247.000000	
54.695140	288.000000	
54.714600	259.000000	
54.734040	251.000000	
54.753490	259.000000	
54.772950	285.000000	
54.792400	271.000000	
54.811840	277.000000	
54.831300	255.000000	
54.850750	274.000000	
54.870190	240.000000	
54.889640	268.000000	
54.909100	299.000000	
54.928550	270.000000	
54.947990	299.000000	
54.967450	273.000000	
54.986900	343.000000	
55.006350	327.000000	
