;content of FAPbBr3.uxd - (Diffrac Plus V4 file)
_FILEVERSION = 3
_SAMPLE = FAPbBr3
_+SAMPLE
_USER = Lab Manager
_GONIOMETER_CODE = 21
_STAGE_CODE = 0
; Goniometer : D8 theta/theta, stage : Standard
_SAMPLE_CHANGER_CODE = 0
_ATTACHMENTS_CODE = 0
_GONIOMETER_RADIUS = 250
_FIXED_DIVSLIT = 1
_MONOCHROMATOR = 0
; Incident beam monochromator : None
_BETA_FILTER = N
_FIXED_ANTISLIT = 18
_ANALYZER_CODE = 0
; Received beam analyzer : None
_DATEMEASURED = 28-Jul-2026 08:52:16
_RUNTIME = 1637.335
_WL_UNIT = A
_WL1 = 1.5406
_WL2 = 1.54439
_WL3 = 1.39222
_WLRATIO = 0.5
_ANODE = Cu
_V4_INF_USER = Lab Manager
_V4_INF_SAMPLEID = FAPbBr3
_V4_INF_CREATOR = DatToUxdConverter
_V4_INF_CREATOR_VERSION = 1.0.0.0

; Data for range 1
_DRIVE = COUPLED
_STEPTIME = 1
_STEPSIZE = 0.019449999999999967
_STEPMODE = C
_START = 5.0001
_THETA = 2.50005
_2THETA = 5.0001
_DETECTORSLIT = out
_TIMESTARTED = 0
_KV = 40
_MA = 40
_RANGE_WL = 1.5406
_3DPLANE = 0
_V4_PSD2THETA = 9999
_V4_PSDCHANNEL1 = 0
_V4_PSDAPERTURE = 2.745898
_V4_PSDTYPE = 5
_V4_PSDFIXED = 0
_V4_COUNTERS_MASK = 1
_V4_DRIVES_MASK = 0
_V4_ENCODERS_MASK = 0
_2THETACOUNTS = 1
; 2THETA	Cnt2_D1	
5.000100	5812.000000	
5.019550	5827.000000	
5.039000	5799.000000	
5.058450	5689.000000	
5.077900	5757.000000	
5.097350	5754.000000	
5.116800	5653.000000	
5.136250	5770.000000	
5.155700	5861.000000	
5.175150	5719.000000	
5.194600	5679.000000	
5.214050	5705.000000	
5.233500	5565.000000	
5.252950	5624.000000	
5.272400	5736.000000	
5.291850	5705.000000	
5.311300	5597.000000	
5.330750	5598.000000	
5.350200	5567.000000	
5.369650	5593.000000	
5.389100	5549.000000	
5.408550	5499.000000	
5.428000	5516.000000	
5.447450	5414.000000	
5.466900	5632.000000	
5.486350	5558.000000	
5.505800	5373.000000	
5.525250	5567.000000	
5.544700	5630.000000	
5.564150	5379.000000	
5.583600	5484.000000	
5.603050	5515.000000	
5.622500	5457.000000	
5.641950	5441.000000	
5.661400	5325.000000	
5.680850	5323.000000	
5.700300	5527.000000	
5.719750	5375.000000	
5.739200	5441.000000	
5.758650	5399.000000	
5.778100	5383.000000	
5.797550	5388.000000	
5.817010	5169.000000	
5.836450	5254.000000	
5.855910	5225.000000	
5.875360	5355.000000	
5.894810	5266.000000	
5.914260	5197.000000	
5.933710	5291.000000	
5.953160	5271.000000	
5.972610	5305.000000	
5.992060	5184.000000	
6.011510	5110.000000	
6.030960	5152.000000	
6.050410	5154.000000	
6.069860	5133.000000	
6.089310	4994.000000	
6.108760	5161.000000	
6.128210	5202.000000	
6.147660	5159.000000	
6.167110	5042.000000	
6.186560	5003.000000	
6.206010	4984.000000	
6.225460	5122.000000	
6.244910	4939.000000	
6.264360	5018.000000	
6.283810	4863.000000	
6.303260	5042.000000	
6.322710	4939.000000	
6.342160	5037.000000	
6.361610	4894.000000	
6.381060	4981.000000	
6.400510	5007.000000	
6.419960	4888.000000	
6.439410	4965.000000	
6.458860	4975.000000	
6.478310	4810.000000	
6.497760	4945.000000	
6.517210	4880.000000	
6.536660	4892.000000	
6.556110	4808.000000	
6.575560	4909.000000	
6.595010	4937.000000	
6.614460	4787.000000	
6.633910	4874.000000	
6.653360	4913.000000	
6.672810	4677.000000	
6.692260	4805.000000	
6.711710	4634.000000	
6.731160	4779.000000	
6.750610	4753.000000	
6.770060	4687.000000	
6.789510	4596.000000	
6.808960	4697.000000	
6.828410	4672.000000	
6.847860	4595.000000	
6.867310	4645.000000	
6.886760	4518.000000	
6.906210	4396.000000	
6.925660	4499.000000	
6.945110	4567.000000	
6.964560	4538.000000	
6.984010	4611.000000	
7.003460	4599.000000	
7.022910	4569.000000	
7.042360	4384.000000	
7.061810	4522.000000	
7.081260	4442.000000	
7.100710	4361.000000	
7.120160	4409.000000	
7.139610	4456.000000	
7.159060	4407.000000	
7.178510	4486.000000	
7.197960	4317.000000	
7.217410	4355.000000	
7.236860	4403.000000	
7.256310	4309.000000	
7.275760	4351.000000	
7.295210	4262.000000	
7.314660	4413.000000	
7.334110	4443.000000	
7.353560	4288.000000	
7.373010	4261.000000	
7.392460	4298.000000	
7.411910	4268.000000	
7.431360	4271.000000	
7.450810	4119.000000	
7.470260	4300.000000	
7.489710	4202.000000	
7.509160	4082.000000	
7.528610	4086.000000	
7.548070	4211.000000	
7.567520	4136.000000	
7.586970	4199.000000	
7.606420	4049.000000	
7.625870	4033.000000	
7.645320	4024.000000	
7.664770	4027.000000	
7.684220	4047.000000	
7.703670	4035.000000	
7.723120	3996.000000	
7.742570	3921.000000	
7.762020	3995.000000	
7.781470	4050.000000	
7.800920	4058.000000	
7.820370	3975.000000	
7.839820	4061.000000	
7.859270	3976.000000	
7.878720	3863.000000	
7.898170	3864.000000	
7.917620	3911.000000	
7.937070	3898.000000	
7.956520	4020.000000	
7.975970	3891.000000	
7.995420	3862.000000	
8.014870	3853.000000	
8.034320	3778.000000	
8.053770	3765.000000	
8.073220	3859.000000	
8.092670	3899.000000	
8.112120	3773.000000	
8.131570	3692.000000	
8.151020	3674.000000	
8.170470	3764.000000	
8.189920	3777.000000	
8.209370	3657.000000	
8.228820	3665.000000	
8.248270	3705.000000	
8.267720	3629.000000	
8.287170	3719.000000	
8.306620	3719.000000	
8.326070	3584.000000	
8.345520	3620.000000	
8.364970	3719.000000	
8.384420	3600.000000	
8.403870	3578.000000	
8.423320	3641.000000	
8.442770	3537.000000	
8.462220	3588.000000	
8.481670	3585.000000	
8.501120	3581.000000	
8.520570	3466.000000	
8.540020	3395.000000	
8.559470	3488.000000	
8.578920	3558.000000	
8.598370	3482.000000	
8.617820	3431.000000	
8.637270	3432.000000	
8.656720	3472.000000	
8.676170	3379.000000	
8.695620	3443.000000	
8.715070	3358.000000	
8.734520	3373.000000	
8.753970	3371.000000	
8.773420	3400.000000	
8.792870	3247.000000	
8.812320	3339.000000	
8.831770	3340.000000	
8.851220	3281.000000	
8.870670	3155.000000	
8.890120	3202.000000	
8.909570	3330.000000	
8.929020	3229.000000	
8.948470	3146.000000	
8.967920	3211.000000	
8.987370	3283.000000	
9.006820	3241.000000	
9.026270	3142.000000	
9.045720	3130.000000	
9.065170	3202.000000	
9.084620	3109.000000	
9.104070	3165.000000	
9.123520	3226.000000	
9.142970	3239.000000	
9.162430	3115.000000	
9.181880	3189.000000	
9.201330	3185.000000	
9.220770	3106.000000	
9.240220	3091.000000	
9.259680	3048.000000	
9.279130	3081.000000	
9.298580	3026.000000	
9.318030	2902.000000	
9.337480	3059.000000	
9.356930	2896.000000	
9.376380	3037.000000	
9.395830	3096.000000	
9.415280	2851.000000	
9.434730	2913.000000	
9.454180	2925.000000	
9.473630	2912.000000	
9.493080	2922.000000	
9.512530	2889.000000	
9.531980	2935.000000	
9.551430	2840.000000	
9.570880	2926.000000	
9.590330	2873.000000	
9.609780	2727.000000	
9.629230	2799.000000	
9.648680	2821.000000	
9.668130	2869.000000	
9.687580	2864.000000	
9.707030	2718.000000	
9.726480	2817.000000	
9.745930	2783.000000	
9.765380	2805.000000	
9.784830	2746.000000	
9.804280	2706.000000	
9.823730	2667.000000	
9.843180	2780.000000	
9.862630	2684.000000	
9.882080	2637.000000	
9.901530	2740.000000	
9.920980	2633.000000	
9.940430	2534.000000	
9.959880	2655.000000	
9.979330	2701.000000	
9.998780	2655.000000	
10.018230	2567.000000	
10.037680	2546.000000	
10.057130	2581.000000	
10.076580	2527.000000	
10.096030	2599.000000	
10.115480	2543.000000	
10.134930	2545.000000	
10.154380	2595.000000	
10.173830	2670.000000	
10.193280	2524.000000	
10.212730	2549.000000	
10.232180	2547.000000	
10.251630	2480.000000	
10.271080	2616.000000	
10.290530	2574.000000	
10.309980	2514.000000	
10.329430	2521.000000	
10.348880	2456.000000	
10.368330	2426.000000	
10.387780	2407.000000	
10.407230	2346.000000	
10.426680	2373.000000	
10.446130	2425.000000	
10.465580	2451.000000	
10.485030	2446.000000	
10.504480	2327.000000	
10.523930	2262.000000	
10.543380	2421.000000	
10.562830	2394.000000	
10.582280	2389.000000	
10.601730	2298.000000	
10.621180	2248.000000	
10.640630	2239.000000	
10.660080	2384.000000	
10.679530	2341.000000	
10.698980	2323.000000	
10.718430	2318.000000	
10.737880	2303.000000	
10.757330	2291.000000	
10.776780	2220.000000	
10.796230	2292.000000	
10.815680	2180.000000	
10.835130	2228.000000	
10.854580	2247.000000	
10.874030	2271.000000	
10.893490	2216.000000	
10.912940	2246.000000	
10.932390	2168.000000	
10.951840	2119.000000	
10.971290	2134.000000	
10.990740	2167.000000	
11.010190	2202.000000	
11.029640	2053.000000	
11.049090	2161.000000	
11.068540	2135.000000	
11.087990	2162.000000	
11.107440	2113.000000	
11.126890	2164.000000	
11.146340	2156.000000	
11.165790	2085.000000	
11.185240	2033.000000	
11.204690	2070.000000	
11.224140	2052.000000	
11.243590	2097.000000	
11.263040	2099.000000	
11.282490	2068.000000	
11.301940	2020.000000	
11.321390	2079.000000	
11.340840	2019.000000	
11.360290	2084.000000	
11.379740	2031.000000	
11.399190	1988.000000	
11.418640	2014.000000	
11.438090	2074.000000	
11.457540	1992.000000	
11.476990	2032.000000	
11.496440	1980.000000	
11.515890	2045.000000	
11.535340	1987.000000	
11.554790	1995.000000	
11.574240	2010.000000	
11.593690	1946.000000	
11.613140	1956.000000	
11.632590	2012.000000	
11.652040	1967.000000	
11.671490	1945.000000	
11.690940	1921.000000	
11.710390	1965.000000	
11.729840	1949.000000	
11.749290	1973.000000	
11.768740	1916.000000	
11.788190	1897.000000	
11.807640	1906.000000	
11.827090	1863.000000	
11.846540	1829.000000	
11.865990	1857.000000	
11.885440	1877.000000	
11.904890	1892.000000	
11.924340	1884.000000	
11.943790	1897.000000	
11.963240	1826.000000	
11.982690	1864.000000	
12.002140	1775.000000	
12.021590	1844.000000	
12.041040	1832.000000	
12.060490	1856.000000	
12.079940	1795.000000	
12.099390	1771.000000	
12.118840	1778.000000	
12.138290	1732.000000	
12.157740	1828.000000	
12.177190	1777.000000	
12.196640	1786.000000	
12.216090	1766.000000	
12.235540	1832.000000	
12.254990	1748.000000	
12.274440	1803.000000	
12.293890	1747.000000	
12.313340	1774.000000	
12.332790	1853.000000	
12.352240	1774.000000	
12.371690	1770.000000	
12.391140	1772.000000	
12.410590	1758.000000	
12.430040	1712.000000	
12.449490	1726.000000	
12.468940	1644.000000	
12.488390	1716.000000	
12.507840	1707.000000	
12.527300	1734.000000	
12.546740	1718.000000	
12.566190	1719.000000	
12.585640	1604.000000	
12.605090	1704.000000	
12.624550	1635.000000	
12.644000	1703.000000	
12.663450	1697.000000	
12.682900	1629.000000	
12.702350	1691.000000	
12.721800	1666.000000	
12.741250	1667.000000	
12.760700	1676.000000	
12.780150	1734.000000	
12.799600	1672.000000	
12.819050	1601.000000	
12.838500	1597.000000	
12.857950	1688.000000	
12.877400	1602.000000	
12.896850	1641.000000	
12.916300	1686.000000	
12.935750	1640.000000	
12.955200	1630.000000	
12.974650	1595.000000	
12.994100	1637.000000	
13.013550	1552.000000	
13.033000	1605.000000	
13.052450	1547.000000	
13.071900	1644.000000	
13.091350	1531.000000	
13.110800	1641.000000	
13.130250	1663.000000	
13.149700	1662.000000	
13.169150	1575.000000	
13.188600	1576.000000	
13.208050	1660.000000	
13.227500	1625.000000	
13.246950	1627.000000	
13.266400	1661.000000	
13.285850	1707.000000	
13.305300	1792.000000	
13.324750	1698.000000	
13.344200	1794.000000	
13.363650	1867.000000	
13.383100	1804.000000	
13.402550	1706.000000	
13.422000	1716.000000	
13.441450	1558.000000	
13.460900	1510.000000	
13.480350	1531.000000	
13.499800	1557.000000	
13.519250	1559.000000	
13.538700	1549.000000	
13.558150	1599.000000	
13.577600	1480.000000	
13.597050	1503.000000	
13.616500	1481.000000	
13.635950	1620.000000	
13.655400	1489.000000	
13.674850	1528.000000	
13.694300	1475.000000	
13.713750	1504.000000	
13.733200	1492.000000	
13.752650	1486.000000	
13.772100	1431.000000	
13.791550	1470.000000	
13.811000	1502.000000	
13.830450	1416.000000	
13.849900	1522.000000	
13.869350	1478.000000	
13.888800	1479.000000	
13.908250	1463.000000	
13.927700	1505.000000	
13.947150	1450.000000	
13.966600	1488.000000	
13.986050	1458.000000	
14.005500	1514.000000	
14.024950	1449.000000	
14.044400	1454.000000	
14.063850	1580.000000	
14.083300	1558.000000	
14.102750	1531.000000	
14.122200	1634.000000	
14.141650	1525.000000	
14.161100	1638.000000	
14.180550	1657.000000	
14.200000	1726.000000	
14.219450	1798.000000	
14.238900	1827.000000	
14.258360	2040.000000	
14.277810	2234.000000	
14.297260	2393.000000	
14.316710	2531.000000	
14.336150	2874.000000	
14.355610	3122.000000	
14.375060	3345.000000	
14.394510	3661.000000	
14.413960	3912.000000	
14.433410	4233.000000	
14.452860	4758.000000	
14.472310	5535.000000	
14.491760	6244.000000	
14.511210	7145.000000	
14.530660	8091.000000	
14.550110	9237.000000	
14.569560	11066.000000	
14.589010	13186.000000	
14.608460	15935.000000	
14.627910	19345.000000	
14.647360	23226.000000	
14.666810	28031.000000	
14.686260	34679.000000	
14.705710	44255.000000	
14.725160	58324.000000	
14.744610	74390.000000	
14.764060	94450.000000	
14.783510	111693.000000	
14.802960	116833.000000	
14.822410	99803.000000	
14.841860	82005.000000	
14.861310	50152.000000	
14.880760	26886.000000	
14.900210	13818.000000	
14.919660	6002.000000	
14.939110	4707.000000	
14.958560	4042.000000	
14.978010	3693.000000	
14.997460	3366.000000	
15.016910	3119.000000	
15.036360	2946.000000	
15.055810	2634.000000	
15.075260	2452.000000	
15.094710	2268.000000	
15.114160	2125.000000	
15.133610	2061.000000	
15.153060	2003.000000	
15.172510	1942.000000	
15.191960	1910.000000	
15.211410	1969.000000	
15.230860	1929.000000	
15.250310	2043.000000	
15.269760	1903.000000	
15.289210	1801.000000	
15.308660	1791.000000	
15.328110	1838.000000	
15.347560	1820.000000	
15.367010	1813.000000	
15.386460	1799.000000	
15.405910	1791.000000	
15.425360	1795.000000	
15.444810	1775.000000	
15.464260	1704.000000	
15.483710	1695.000000	
15.503160	1638.000000	
15.522610	1683.000000	
15.542060	1706.000000	
15.561510	1711.000000	
15.580960	1676.000000	
15.600410	1657.000000	
15.619860	1682.000000	
15.639310	1644.000000	
15.658760	1614.000000	
15.678210	1641.000000	
15.697660	1638.000000	
15.717110	1641.000000	
15.736560	1623.000000	
15.756010	1580.000000	
15.775460	1568.000000	
15.794910	1540.000000	
15.814360	1534.000000	
15.833810	1627.000000	
15.853260	1605.000000	
15.872710	1600.000000	
15.892160	1549.000000	
15.911610	1498.000000	
15.931060	1525.000000	
15.950510	1545.000000	
15.969960	1618.000000	
15.989420	1550.000000	
16.008870	1520.000000	
16.028310	1470.000000	
16.047770	1461.000000	
16.067210	1531.000000	
16.086670	1492.000000	
16.106120	1469.000000	
16.125570	1494.000000	
16.145020	1514.000000	
16.164470	1461.000000	
16.183920	1453.000000	
16.203370	1508.000000	
16.222820	1434.000000	
16.242270	1515.000000	
16.261720	1478.000000	
16.281170	1389.000000	
16.300620	1403.000000	
16.320070	1432.000000	
16.339520	1461.000000	
16.358970	1417.000000	
16.378420	1401.000000	
16.397870	1376.000000	
16.417320	1376.000000	
16.436770	1429.000000	
16.456220	1409.000000	
16.475670	1370.000000	
16.495120	1350.000000	
16.514570	1402.000000	
16.534020	1328.000000	
16.553470	1357.000000	
16.572920	1371.000000	
16.592370	1353.000000	
16.611820	1407.000000	
16.631270	1339.000000	
16.650720	1312.000000	
16.670170	1367.000000	
16.689620	1309.000000	
16.709070	1433.000000	
16.728520	1290.000000	
16.747970	1305.000000	
16.767420	1318.000000	
16.786870	1353.000000	
16.806320	1394.000000	
16.825770	1336.000000	
16.845220	1268.000000	
16.864670	1241.000000	
16.884120	1368.000000	
16.903570	1335.000000	
16.923020	1293.000000	
16.942470	1300.000000	
16.961920	1318.000000	
16.981370	1222.000000	
17.000820	1287.000000	
17.020270	1238.000000	
17.039720	1223.000000	
17.059170	1349.000000	
17.078620	1264.000000	
17.098070	1257.000000	
17.117520	1263.000000	
17.136970	1291.000000	
17.156420	1328.000000	
17.175870	1215.000000	
17.195320	1224.000000	
17.214770	1255.000000	
17.234220	1285.000000	
17.253670	1307.000000	
17.273120	1256.000000	
17.292570	1316.000000	
17.312020	1242.000000	
17.331470	1283.000000	
17.350920	1274.000000	
17.370370	1233.000000	
17.389820	1182.000000	
17.409270	1250.000000	
17.428720	1231.000000	
17.448170	1250.000000	
17.467620	1217.000000	
17.487070	1247.000000	
17.506530	1223.000000	
17.525970	1177.000000	
17.545420	1168.000000	
17.564870	1179.000000	
17.584320	1190.000000	
17.603780	1255.000000	
17.623220	1183.000000	
17.642680	1233.000000	
17.662120	1203.000000	
17.681580	1164.000000	
17.701030	1145.000000	
17.720480	1204.000000	
17.739930	1193.000000	
17.759380	1215.000000	
17.778830	1227.000000	
17.798270	1231.000000	
17.817730	1157.000000	
17.837180	1139.000000	
17.856630	1142.000000	
17.876080	1210.000000	
17.895530	1171.000000	
17.914980	1183.000000	
17.934430	1198.000000	
17.953880	1174.000000	
17.973330	1173.000000	
17.992780	1177.000000	
18.012230	1158.000000	
18.031680	1133.000000	
18.051130	1154.000000	
18.070580	1173.000000	
18.090030	1151.000000	
18.109480	1140.000000	
18.128930	1085.000000	
18.148380	1182.000000	
18.167830	1173.000000	
18.187280	1174.000000	
18.206730	1152.000000	
18.226180	1156.000000	
18.245630	1130.000000	
18.265080	1119.000000	
18.284530	1185.000000	
18.303980	1105.000000	
18.323430	1121.000000	
18.342880	1212.000000	
18.362330	1189.000000	
18.381780	1145.000000	
18.401230	1183.000000	
18.420680	1185.000000	
18.440130	1160.000000	
18.459580	1196.000000	
18.479030	1138.000000	
18.498480	1138.000000	
18.517930	1163.000000	
18.537380	1145.000000	
18.556830	1076.000000	
18.576280	1143.000000	
18.595730	1196.000000	
18.615180	1127.000000	
18.634630	1152.000000	
18.654080	1143.000000	
18.673530	1110.000000	
18.692980	1213.000000	
18.712430	1107.000000	
18.731880	1140.000000	
18.751330	1198.000000	
18.770780	1219.000000	
18.790230	1177.000000	
18.809680	1151.000000	
18.829130	1222.000000	
18.848580	1210.000000	
18.868030	1201.000000	
18.887480	1272.000000	
18.906930	1316.000000	
18.926380	1298.000000	
18.945830	1241.000000	
18.965280	1298.000000	
18.984730	1182.000000	
19.004180	1104.000000	
19.023630	1099.000000	
19.043080	1157.000000	
19.062530	1112.000000	
19.081980	1140.000000	
19.101430	1089.000000	
19.120880	1182.000000	
19.140330	1145.000000	
19.159780	1174.000000	
19.179230	1128.000000	
19.198680	1187.000000	
19.218130	1198.000000	
19.237590	1128.000000	
19.257030	1185.000000	
19.276490	1127.000000	
19.295930	1132.000000	
19.315380	1135.000000	
19.334840	1165.000000	
19.354280	1117.000000	
19.373740	1143.000000	
19.393180	1117.000000	
19.412640	1147.000000	
19.432090	1106.000000	
19.451540	1151.000000	
19.470990	1114.000000	
19.490440	1136.000000	
19.509890	1063.000000	
19.529340	1167.000000	
19.548790	1187.000000	
19.568240	1100.000000	
19.587690	1118.000000	
19.607140	1113.000000	
19.626590	1114.000000	
19.646040	1174.000000	
19.665490	1189.000000	
19.684940	1107.000000	
19.704390	1150.000000	
19.723840	1128.000000	
19.743290	1154.000000	
19.762740	1157.000000	
19.782190	1122.000000	
19.801640	1125.000000	
19.821090	1149.000000	
19.840540	1219.000000	
19.859990	1186.000000	
19.879440	1147.000000	
19.898890	1142.000000	
19.918340	1089.000000	
19.937790	1105.000000	
19.957240	1162.000000	
19.976690	1089.000000	
19.996140	1147.000000	
20.015590	1250.000000	
20.035040	1156.000000	
20.054490	1166.000000	
20.073940	1195.000000	
20.093390	1226.000000	
20.112840	1167.000000	
20.132290	1174.000000	
20.151740	1191.000000	
20.171190	1234.000000	
20.190640	1193.000000	
20.210090	1222.000000	
20.229540	1294.000000	
20.248990	1353.000000	
20.268440	1404.000000	
20.287890	1508.000000	
20.307340	1412.000000	
20.326790	1408.000000	
20.346240	1468.000000	
20.365690	1486.000000	
20.385140	1465.000000	
20.404590	1566.000000	
20.424040	1544.000000	
20.443490	1459.000000	
20.462940	1550.000000	
20.482390	1540.000000	
20.501840	1582.000000	
20.521290	1595.000000	
20.540740	1591.000000	
20.560190	1648.000000	
20.579640	1771.000000	
20.599090	1850.000000	
20.618540	1962.000000	
20.637990	2095.000000	
20.657440	2297.000000	
20.676890	2503.000000	
20.696340	2877.000000	
20.715790	3290.000000	
20.735240	3763.000000	
20.754690	4234.000000	
20.774140	4952.000000	
20.793590	5982.000000	
20.813040	7265.000000	
20.832490	9396.000000	
20.851940	12162.000000	
20.871390	15715.000000	
20.890840	21167.000000	
20.910290	29846.000000	
20.929740	43359.000000	
20.949190	56686.000000	
20.968650	66068.000000	
20.988090	63905.000000	
21.007550	56776.000000	
21.026990	44387.000000	
21.046450	27928.000000	
21.065900	17680.000000	
21.085350	10268.000000	
21.104800	5114.000000	
21.124240	3338.000000	
21.143700	2906.000000	
21.163150	2601.000000	
21.182600	2260.000000	
21.202050	2193.000000	
21.221500	2227.000000	
21.240950	1935.000000	
21.260400	1786.000000	
21.279850	1706.000000	
21.299300	1620.000000	
21.318750	1584.000000	
21.338200	1506.000000	
21.357650	1426.000000	
21.377100	1436.000000	
21.396550	1428.000000	
21.416000	1473.000000	
21.435450	1419.000000	
21.454900	1411.000000	
21.474350	1445.000000	
21.493800	1454.000000	
21.513250	1303.000000	
21.532700	1366.000000	
21.552150	1340.000000	
21.571600	1355.000000	
21.591050	1336.000000	
21.610500	1282.000000	
21.629950	1379.000000	
21.649400	1319.000000	
21.668850	1386.000000	
21.688300	1272.000000	
21.707750	1390.000000	
21.727200	1220.000000	
21.746650	1342.000000	
21.766100	1290.000000	
21.785550	1353.000000	
21.805000	1304.000000	
21.824450	1306.000000	
21.843900	1332.000000	
21.863350	1321.000000	
21.882800	1362.000000	
21.902250	1273.000000	
21.921700	1318.000000	
21.941150	1314.000000	
21.960600	1337.000000	
21.980050	1295.000000	
21.999500	1274.000000	
22.018950	1228.000000	
22.038400	1281.000000	
22.057850	1289.000000	
22.077300	1226.000000	
22.096750	1294.000000	
22.116200	1310.000000	
22.135650	1309.000000	
22.155100	1218.000000	
22.174550	1237.000000	
22.194000	1259.000000	
22.213450	1290.000000	
22.232900	1270.000000	
22.252350	1234.000000	
22.271800	1284.000000	
22.291250	1263.000000	
22.310700	1307.000000	
22.330150	1296.000000	
22.349600	1247.000000	
22.369050	1284.000000	
22.388500	1280.000000	
22.407950	1258.000000	
22.427400	1240.000000	
22.446850	1295.000000	
22.466300	1212.000000	
22.485750	1254.000000	
22.505200	1249.000000	
22.524650	1262.000000	
22.544100	1243.000000	
22.563550	1255.000000	
22.583000	1313.000000	
22.602460	1256.000000	
22.621900	1215.000000	
22.641350	1235.000000	
22.660800	1169.000000	
22.680250	1219.000000	
22.699710	1197.000000	
22.719150	1240.000000	
22.738610	1204.000000	
22.758050	1196.000000	
22.777510	1268.000000	
22.796960	1226.000000	
22.816410	1254.000000	
22.835860	1234.000000	
22.855310	1199.000000	
22.874760	1194.000000	
22.894210	1242.000000	
22.913660	1215.000000	
22.933110	1313.000000	
22.952560	1295.000000	
22.972010	1231.000000	
22.991460	1301.000000	
23.010910	1271.000000	
23.030360	1240.000000	
23.049810	1156.000000	
23.069260	1294.000000	
23.088710	1071.000000	
23.108160	1186.000000	
23.127610	1157.000000	
23.147060	1160.000000	
23.166510	1238.000000	
23.185960	1284.000000	
23.205410	1277.000000	
23.224860	1197.000000	
23.244310	1245.000000	
23.263760	1227.000000	
23.283210	1199.000000	
23.302660	1229.000000	
23.322110	1176.000000	
23.341560	1248.000000	
23.361010	1261.000000	
23.380460	1265.000000	
23.399910	1149.000000	
23.419360	1212.000000	
23.438810	1243.000000	
23.458260	1159.000000	
23.477710	1193.000000	
23.497160	1197.000000	
23.516610	1147.000000	
23.536060	1222.000000	
23.555510	1229.000000	
23.574960	1197.000000	
23.594410	1213.000000	
23.613860	1196.000000	
23.633310	1198.000000	
23.652760	1174.000000	
23.672210	1174.000000	
23.691660	1170.000000	
23.711110	1252.000000	
23.730560	1235.000000	
23.750010	1220.000000	
23.769460	1234.000000	
23.788910	1178.000000	
23.808360	1154.000000	
23.827810	1137.000000	
23.847260	1130.000000	
23.866710	1139.000000	
23.886160	1220.000000	
23.905610	1204.000000	
23.925060	1157.000000	
23.944510	1214.000000	
23.963960	1213.000000	
23.983410	1221.000000	
24.002860	1244.000000	
24.022310	1181.000000	
24.041760	1208.000000	
24.061210	1201.000000	
24.080660	1193.000000	
24.100110	1228.000000	
24.119560	1149.000000	
24.139010	1218.000000	
24.158460	1128.000000	
24.177910	1238.000000	
24.197360	1199.000000	
24.216810	1137.000000	
24.236260	1236.000000	
24.255710	1237.000000	
24.275160	1283.000000	
24.294610	1243.000000	
24.314060	1218.000000	
24.333520	1115.000000	
24.352960	1200.000000	
24.372420	1117.000000	
24.391860	1166.000000	
24.411310	1200.000000	
24.430770	1195.000000	
24.450210	1159.000000	
24.469670	1234.000000	
24.489110	1120.000000	
24.508570	1217.000000	
24.528020	1292.000000	
24.547470	1217.000000	
24.566920	1272.000000	
24.586370	1119.000000	
24.605820	1176.000000	
24.625270	1255.000000	
24.644720	1185.000000	
24.664170	1210.000000	
24.683620	1217.000000	
24.703070	1177.000000	
24.722520	1274.000000	
24.741970	1178.000000	
24.761420	1247.000000	
24.780870	1183.000000	
24.800320	1219.000000	
24.819770	1210.000000	
24.839220	1236.000000	
24.858670	1214.000000	
24.878120	1143.000000	
24.897570	1232.000000	
24.917020	1252.000000	
24.936470	1234.000000	
24.955920	1165.000000	
24.975370	1177.000000	
24.994820	1159.000000	
25.014270	1213.000000	
25.033720	1203.000000	
25.053170	1209.000000	
25.072620	1276.000000	
25.092070	1248.000000	
25.111520	1221.000000	
25.130970	1217.000000	
25.150420	1247.000000	
25.169870	1255.000000	
25.189320	1280.000000	
25.208770	1277.000000	
25.228220	1167.000000	
25.247670	1238.000000	
25.267120	1173.000000	
25.286570	1237.000000	
25.306020	1250.000000	
25.325470	1339.000000	
25.344920	1251.000000	
25.364370	1304.000000	
25.383820	1248.000000	
25.403270	1194.000000	
25.422720	1211.000000	
25.442170	1240.000000	
25.461620	1210.000000	
25.481070	1279.000000	
25.500520	1391.000000	
25.519970	1342.000000	
25.539420	1318.000000	
25.558870	1416.000000	
25.578320	1471.000000	
25.597770	1562.000000	
25.617220	1657.000000	
25.636670	1813.000000	
25.656120	2069.000000	
25.675570	2345.000000	
25.695020	2752.000000	
25.714470	3364.000000	
25.733920	4067.000000	
25.753370	4033.000000	
25.772820	3820.000000	
25.792270	3404.000000	
25.811720	2934.000000	
25.831170	2416.000000	
25.850620	2010.000000	
25.870070	1706.000000	
25.889520	1487.000000	
25.908970	1309.000000	
25.928420	1249.000000	
25.947870	1264.000000	
25.967320	1277.000000	
25.986770	1308.000000	
26.006220	1291.000000	
26.025670	1288.000000	
26.045120	1271.000000	
26.064580	1267.000000	
26.084020	1291.000000	
26.103480	1266.000000	
26.122920	1182.000000	
26.142380	1292.000000	
26.161830	1225.000000	
26.181280	1245.000000	
26.200730	1289.000000	
26.220170	1294.000000	
26.239630	1288.000000	
26.259080	1216.000000	
26.278530	1244.000000	
26.297980	1250.000000	
26.317430	1281.000000	
26.336880	1327.000000	
26.356330	1181.000000	
26.375780	1264.000000	
26.395230	1234.000000	
26.414680	1272.000000	
26.434130	1306.000000	
26.453580	1232.000000	
26.473030	1273.000000	
26.492480	1314.000000	
26.511930	1258.000000	
26.531380	1355.000000	
26.550830	1268.000000	
26.570280	1258.000000	
26.589730	1234.000000	
26.609180	1322.000000	
26.628630	1346.000000	
26.648080	1343.000000	
26.667530	1286.000000	
26.686980	1229.000000	
26.706430	1335.000000	
26.725880	1347.000000	
26.745330	1274.000000	
26.764780	1313.000000	
26.784230	1335.000000	
26.803680	1417.000000	
26.823130	1404.000000	
26.842580	1422.000000	
26.862030	1447.000000	
26.881480	1579.000000	
26.900930	1585.000000	
26.920380	1597.000000	
26.939830	1491.000000	
26.959280	1415.000000	
26.978730	1352.000000	
26.998180	1313.000000	
27.017630	1288.000000	
27.037080	1309.000000	
27.056530	1355.000000	
27.075980	1340.000000	
27.095430	1314.000000	
27.114880	1305.000000	
27.134330	1314.000000	
27.153780	1351.000000	
27.173230	1322.000000	
27.192680	1337.000000	
27.212130	1341.000000	
27.231580	1336.000000	
27.251030	1301.000000	
27.270480	1391.000000	
27.289930	1350.000000	
27.309380	1284.000000	
27.328830	1329.000000	
27.348280	1382.000000	
27.367730	1355.000000	
27.387180	1365.000000	
27.406630	1303.000000	
27.426080	1332.000000	
27.445530	1346.000000	
27.464980	1353.000000	
27.484430	1408.000000	
27.503880	1368.000000	
27.523330	1328.000000	
27.542780	1334.000000	
27.562230	1326.000000	
27.581680	1349.000000	
27.601130	1365.000000	
27.620580	1337.000000	
27.640030	1299.000000	
27.659480	1353.000000	
27.678930	1348.000000	
27.698390	1403.000000	
27.717830	1404.000000	
27.737280	1397.000000	
27.756730	1347.000000	
27.776180	1345.000000	
27.795640	1374.000000	
27.815080	1414.000000	
27.834540	1347.000000	
27.853980	1329.000000	
27.873440	1360.000000	
27.892890	1361.000000	
27.912340	1392.000000	
27.931790	1374.000000	
27.951240	1319.000000	
27.970690	1402.000000	
27.990140	1365.000000	
28.009590	1352.000000	
28.029040	1360.000000	
28.048490	1307.000000	
28.067940	1329.000000	
28.087390	1331.000000	
28.106840	1409.000000	
28.126290	1405.000000	
28.145740	1447.000000	
28.165190	1437.000000	
28.184640	1341.000000	
28.204090	1342.000000	
28.223540	1421.000000	
28.242990	1405.000000	
28.262440	1350.000000	
28.281890	1417.000000	
28.301340	1432.000000	
28.320790	1527.000000	
28.340240	1358.000000	
28.359690	1457.000000	
28.379140	1439.000000	
28.398590	1363.000000	
28.418040	1392.000000	
28.437490	1421.000000	
28.456940	1488.000000	
28.476390	1400.000000	
28.495840	1438.000000	
28.515290	1457.000000	
28.534740	1446.000000	
28.554190	1395.000000	
28.573640	1447.000000	
28.593090	1485.000000	
28.612540	1394.000000	
28.631990	1442.000000	
28.651440	1415.000000	
28.670890	1484.000000	
28.690340	1491.000000	
28.709790	1545.000000	
28.729240	1550.000000	
28.748690	1536.000000	
28.768140	1619.000000	
28.787590	1649.000000	
28.807040	1783.000000	
28.826490	1767.000000	
28.845940	1710.000000	
28.865390	1800.000000	
28.884840	1719.000000	
28.904290	1786.000000	
28.923740	1753.000000	
28.943190	1870.000000	
28.962640	1846.000000	
28.982090	1791.000000	
29.001540	1858.000000	
29.020990	1856.000000	
29.040440	1973.000000	
29.059890	1793.000000	
29.079340	1858.000000	
29.098790	1881.000000	
29.118240	1888.000000	
29.137690	1862.000000	
29.157140	1991.000000	
29.176590	1904.000000	
29.196040	1950.000000	
29.215490	1894.000000	
29.234940	1952.000000	
29.254390	1976.000000	
29.273840	1912.000000	
29.293290	1936.000000	
29.312740	2008.000000	
29.332190	2039.000000	
29.351640	1999.000000	
29.371090	2064.000000	
29.390540	2202.000000	
29.409990	2318.000000	
29.429450	2357.000000	
29.448890	2385.000000	
29.468350	2586.000000	
29.487790	2690.000000	
29.507250	3036.000000	
29.526700	3246.000000	
29.546140	3523.000000	
29.565600	3956.000000	
29.585040	4559.000000	
29.604500	4879.000000	
29.623950	5539.000000	
29.643400	6950.000000	
29.662850	9094.000000	
29.682300	11138.000000	
29.701750	14555.000000	
29.721200	19075.000000	
29.740650	23519.000000	
29.760100	35198.000000	
29.779550	48972.000000	
29.799000	73585.000000	
29.818450	96820.000000	
29.837900	94260.000000	
29.857350	85113.000000	
29.876800	68717.000000	
29.896250	54321.000000	
29.915700	44027.000000	
29.935150	35047.000000	
29.954600	19297.000000	
29.974050	8102.000000	
29.993500	5372.000000	
30.012950	4529.000000	
30.032400	4154.000000	
30.051850	3909.000000	
30.071300	3550.000000	
30.090750	3488.000000	
30.110200	3285.000000	
30.129650	3086.000000	
30.149100	2960.000000	
30.168550	2838.000000	
30.188000	2596.000000	
30.207450	2439.000000	
30.226900	2332.000000	
30.246350	2321.000000	
30.265800	2306.000000	
30.285250	2239.000000	
30.304700	2101.000000	
30.324150	2134.000000	
30.343600	2154.000000	
30.363050	2142.000000	
30.382500	2088.000000	
30.401950	2089.000000	
30.421400	2128.000000	
30.440850	1983.000000	
30.460300	2149.000000	
30.479750	2031.000000	
30.499200	1975.000000	
30.518650	2040.000000	
30.538100	1998.000000	
30.557550	2032.000000	
30.577000	1911.000000	
30.596450	1979.000000	
30.615900	1927.000000	
30.635350	1868.000000	
30.654800	1848.000000	
30.674250	1969.000000	
30.693700	1854.000000	
30.713150	1808.000000	
30.732600	1789.000000	
30.752050	1855.000000	
30.771500	1779.000000	
30.790950	1823.000000	
30.810400	1802.000000	
30.829850	1785.000000	
30.849300	1733.000000	
30.868750	1762.000000	
30.888200	1799.000000	
30.907650	1823.000000	
30.927100	1771.000000	
30.946550	1791.000000	
30.966000	1776.000000	
30.985450	1849.000000	
31.004900	1746.000000	
31.024350	1790.000000	
31.043800	1692.000000	
31.063250	1783.000000	
31.082700	1764.000000	
31.102150	1815.000000	
31.121600	1845.000000	
31.141050	1752.000000	
31.160510	1730.000000	
31.179950	1711.000000	
31.199410	1702.000000	
31.218850	1700.000000	
31.238310	1685.000000	
31.257760	1679.000000	
31.277210	1734.000000	
31.296660	1625.000000	
31.316100	1747.000000	
31.335560	1708.000000	
31.355010	1596.000000	
31.374460	1702.000000	
31.393910	1659.000000	
31.413360	1664.000000	
31.432810	1715.000000	
31.452260	1634.000000	
31.471710	1679.000000	
31.491160	1664.000000	
31.510610	1664.000000	
31.530060	1620.000000	
31.549510	1629.000000	
31.568960	1683.000000	
31.588410	1661.000000	
31.607860	1698.000000	
31.627310	1630.000000	
31.646760	1661.000000	
31.666210	1601.000000	
31.685660	1615.000000	
31.705110	1681.000000	
31.724560	1604.000000	
31.744010	1661.000000	
31.763460	1640.000000	
31.782910	1645.000000	
31.802360	1635.000000	
31.821810	1558.000000	
31.841260	1617.000000	
31.860710	1634.000000	
31.880160	1666.000000	
31.899610	1631.000000	
31.919060	1662.000000	
31.938510	1626.000000	
31.957960	1624.000000	
31.977410	1644.000000	
31.996860	1631.000000	
32.016310	1748.000000	
32.035760	1624.000000	
32.055210	1684.000000	
32.074660	1621.000000	
32.094110	1641.000000	
32.113560	1699.000000	
32.133010	1625.000000	
32.152460	1687.000000	
32.171910	1638.000000	
32.191360	1648.000000	
32.210810	1686.000000	
32.230260	1741.000000	
32.249710	1786.000000	
32.269160	1753.000000	
32.288610	1799.000000	
32.308060	1835.000000	
32.327510	1896.000000	
32.346960	1926.000000	
32.366410	1873.000000	
32.385860	1875.000000	
32.405310	1849.000000	
32.424760	1870.000000	
32.444210	1924.000000	
32.463660	1890.000000	
32.483110	1908.000000	
32.502560	1958.000000	
32.522010	1883.000000	
32.541460	1897.000000	
32.560910	1856.000000	
32.580360	1897.000000	
32.599810	1869.000000	
32.619260	1908.000000	
32.638710	1945.000000	
32.658160	1886.000000	
32.677610	1945.000000	
32.697060	1914.000000	
32.716510	2018.000000	
32.735970	1995.000000	
32.755410	1949.000000	
32.774860	1990.000000	
32.794320	1994.000000	
32.813770	1969.000000	
32.833210	1934.000000	
32.852660	2065.000000	
32.872120	1903.000000	
32.891560	2007.000000	
32.911010	2036.000000	
32.930470	2068.000000	
32.949920	2141.000000	
32.969360	2168.000000	
32.988820	2288.000000	
33.008270	2282.000000	
33.027720	2266.000000	
33.047160	2517.000000	
33.066620	2585.000000	
33.086070	2856.000000	
33.105510	2968.000000	
33.124970	3169.000000	
33.144420	3343.000000	
33.163870	3717.000000	
33.183320	4240.000000	
33.202770	4840.000000	
33.222220	5510.000000	
33.241670	6689.000000	
33.261120	8071.000000	
33.280570	9467.000000	
33.300020	11678.000000	
33.319470	14913.000000	
33.338920	20613.000000	
33.358370	27682.000000	
33.377820	38954.000000	
33.397270	60384.000000	
33.416720	86533.000000	
33.436170	91847.000000	
33.455620	73654.000000	
33.475070	61860.000000	
33.494520	55716.000000	
33.513970	51337.000000	
33.533420	39400.000000	
33.552870	27706.000000	
33.572320	17758.000000	
33.591770	9640.000000	
33.611220	5908.000000	
33.630670	4757.000000	
33.650120	3917.000000	
33.669570	3499.000000	
33.689020	3157.000000	
33.708470	2974.000000	
33.727920	2958.000000	
33.747370	2843.000000	
33.766820	2477.000000	
33.786270	2388.000000	
33.805720	2303.000000	
33.825170	2278.000000	
33.844620	2157.000000	
33.864070	2054.000000	
33.883520	2033.000000	
33.902970	2005.000000	
33.922420	2000.000000	
33.941870	1944.000000	
33.961320	1968.000000	
33.980770	1930.000000	
34.000220	1914.000000	
34.019670	1897.000000	
34.039120	1877.000000	
34.058570	1828.000000	
34.078020	1821.000000	
34.097470	1830.000000	
34.116920	1889.000000	
34.136370	1774.000000	
34.155820	1847.000000	
34.175270	1777.000000	
34.194720	1760.000000	
34.214170	1804.000000	
34.233620	1708.000000	
34.253070	1648.000000	
34.272520	1762.000000	
34.291970	1775.000000	
34.311420	1745.000000	
34.330880	1647.000000	
34.350320	1724.000000	
34.369770	1745.000000	
34.389230	1716.000000	
34.408670	1649.000000	
34.428120	1692.000000	
34.447570	1639.000000	
34.467030	1698.000000	
34.486470	1643.000000	
34.505920	1627.000000	
34.525380	1626.000000	
34.544830	1644.000000	
34.564270	1612.000000	
34.583720	1595.000000	
34.603180	1661.000000	
34.622620	1645.000000	
34.642070	1574.000000	
34.661530	1578.000000	
34.680980	1596.000000	
34.700420	1595.000000	
34.719880	1595.000000	
34.739330	1511.000000	
34.758780	1594.000000	
34.778220	1612.000000	
34.797680	1619.000000	
34.817130	1545.000000	
34.836580	1501.000000	
34.856030	1535.000000	
34.875480	1610.000000	
34.894930	1577.000000	
34.914380	1513.000000	
34.933830	1565.000000	
34.953280	1542.000000	
34.972730	1538.000000	
34.992180	1540.000000	
35.011630	1468.000000	
35.031080	1579.000000	
35.050530	1570.000000	
35.069980	1486.000000	
35.089430	1500.000000	
35.108880	1583.000000	
35.128330	1497.000000	
35.147780	1552.000000	
35.167230	1537.000000	
35.186680	1506.000000	
35.206130	1555.000000	
35.225580	1504.000000	
35.245030	1498.000000	
35.264480	1532.000000	
35.283930	1440.000000	
35.303380	1478.000000	
35.322830	1517.000000	
35.342280	1476.000000	
35.361730	1438.000000	
35.381180	1490.000000	
35.400630	1550.000000	
35.420080	1520.000000	
35.439530	1487.000000	
35.458980	1506.000000	
35.478430	1458.000000	
35.497880	1600.000000	
35.517330	1527.000000	
35.536780	1577.000000	
35.556230	1550.000000	
35.575680	1464.000000	
35.595130	1514.000000	
35.614580	1527.000000	
35.634030	1544.000000	
35.653480	1462.000000	
35.672930	1486.000000	
35.692380	1502.000000	
35.711830	1472.000000	
35.731280	1502.000000	
35.750730	1469.000000	
35.770180	1585.000000	
35.789630	1458.000000	
35.809080	1464.000000	
35.828530	1517.000000	
35.847980	1498.000000	
35.867430	1495.000000	
35.886880	1507.000000	
35.906330	1451.000000	
35.925780	1538.000000	
35.945230	1463.000000	
35.964680	1509.000000	
35.984130	1522.000000	
36.003580	1481.000000	
36.023030	1454.000000	
36.042480	1485.000000	
36.061940	1559.000000	
36.081380	1450.000000	
36.100830	1494.000000	
36.120290	1454.000000	
36.139740	1541.000000	
36.159180	1510.000000	
36.178630	1521.000000	
36.198090	1519.000000	
36.217530	1502.000000	
36.236980	1512.000000	
36.256440	1531.000000	
36.275890	1514.000000	
36.295330	1528.000000	
36.314790	1536.000000	
36.334240	1562.000000	
36.353690	1554.000000	
36.373130	1587.000000	
36.392590	1648.000000	
36.412040	1717.000000	
36.431480	1752.000000	
36.450940	1788.000000	
36.470390	1962.000000	
36.489840	2068.000000	
36.509280	2222.000000	
36.528740	2365.000000	
36.548190	2579.000000	
36.567640	3078.000000	
36.587090	3521.000000	
36.606540	4045.000000	
36.625990	5160.000000	
36.645440	6882.000000	
36.664890	9304.000000	
36.684340	12437.000000	
36.703790	17246.000000	
36.723240	21132.000000	
36.742690	19293.000000	
36.762140	15072.000000	
36.781590	12807.000000	
36.801040	12036.000000	
36.820490	11681.000000	
36.839940	9591.000000	
36.859390	7003.000000	
36.878840	4943.000000	
36.898290	3125.000000	
36.917740	2477.000000	
36.937190	2190.000000	
36.956640	2097.000000	
36.976090	1877.000000	
36.995540	1660.000000	
37.014990	1692.000000	
37.034440	1655.000000	
37.053890	1620.000000	
37.073340	1533.000000	
37.092790	1477.000000	
37.112240	1544.000000	
37.131690	1458.000000	
37.151140	1496.000000	
37.170590	1535.000000	
37.190040	1372.000000	
37.209490	1518.000000	
37.228940	1394.000000	
37.248390	1478.000000	
37.267840	1439.000000	
37.287290	1413.000000	
37.306740	1455.000000	
37.326190	1492.000000	
37.345640	1399.000000	
37.365090	1462.000000	
37.384540	1438.000000	
37.403990	1405.000000	
37.423440	1447.000000	
37.442890	1365.000000	
37.462340	1440.000000	
37.481790	1379.000000	
37.501240	1405.000000	
37.520690	1381.000000	
37.540140	1336.000000	
37.559590	1382.000000	
37.579040	1410.000000	
37.598490	1443.000000	
37.617940	1392.000000	
37.637390	1434.000000	
37.656850	1391.000000	
37.676290	1407.000000	
37.695740	1329.000000	
37.715190	1405.000000	
37.734640	1265.000000	
37.754090	1397.000000	
37.773540	1320.000000	
37.793000	1405.000000	
37.812440	1387.000000	
37.831890	1387.000000	
37.851350	1354.000000	
37.870800	1387.000000	
37.890240	1353.000000	
37.909690	1390.000000	
37.929150	1381.000000	
37.948590	1324.000000	
37.968040	1397.000000	
37.987500	1362.000000	
38.006950	1370.000000	
38.026390	1425.000000	
38.045850	1361.000000	
38.065300	1399.000000	
38.084750	1361.000000	
38.104190	1308.000000	
38.123650	1312.000000	
38.143100	1369.000000	
38.162550	1400.000000	
38.182000	1331.000000	
38.201450	1371.000000	
38.220900	1371.000000	
38.240350	1400.000000	
38.259800	1405.000000	
38.279250	1362.000000	
38.298700	1399.000000	
38.318150	1444.000000	
38.337600	1428.000000	
38.357050	1508.000000	
38.376500	1496.000000	
38.395950	1492.000000	
38.415400	1513.000000	
38.434850	1478.000000	
38.454300	1373.000000	
38.473750	1354.000000	
38.493200	1338.000000	
38.512650	1331.000000	
38.532100	1377.000000	
38.551550	1417.000000	
38.571000	1322.000000	
38.590450	1309.000000	
38.609900	1374.000000	
38.629350	1355.000000	
38.648800	1424.000000	
38.668250	1317.000000	
38.687700	1348.000000	
38.707150	1321.000000	
38.726600	1369.000000	
38.746050	1371.000000	
38.765500	1247.000000	
38.784950	1323.000000	
38.804400	1356.000000	
38.823850	1345.000000	
38.843300	1406.000000	
38.862750	1351.000000	
38.882200	1389.000000	
38.901650	1377.000000	
38.921100	1348.000000	
38.940550	1379.000000	
38.960000	1358.000000	
38.979450	1396.000000	
38.998900	1397.000000	
39.018350	1356.000000	
39.037800	1329.000000	
39.057250	1366.000000	
39.076700	1332.000000	
39.096150	1340.000000	
39.115600	1299.000000	
39.135050	1290.000000	
39.154500	1318.000000	
39.173950	1339.000000	
39.193400	1379.000000	
39.212850	1324.000000	
39.232300	1335.000000	
39.251750	1319.000000	
39.271200	1310.000000	
39.290650	1360.000000	
39.310100	1379.000000	
39.329550	1378.000000	
39.349000	1336.000000	
39.368450	1366.000000	
39.387910	1450.000000	
39.407350	1347.000000	
39.426800	1373.000000	
39.446250	1365.000000	
39.465710	1342.000000	
39.485150	1348.000000	
39.504600	1306.000000	
39.524060	1348.000000	
39.543500	1308.000000	
39.562950	1266.000000	
39.582410	1348.000000	
39.601860	1379.000000	
39.621300	1295.000000	
39.640750	1394.000000	
39.660210	1330.000000	
39.679660	1390.000000	
39.699100	1356.000000	
39.718560	1327.000000	
39.738010	1315.000000	
39.757450	1360.000000	
39.776910	1332.000000	
39.796360	1425.000000	
39.815810	1372.000000	
39.835250	1222.000000	
39.854710	1343.000000	
39.874160	1406.000000	
39.893610	1403.000000	
39.913060	1353.000000	
39.932510	1365.000000	
39.951960	1351.000000	
39.971410	1358.000000	
39.990860	1408.000000	
40.010310	1299.000000	
40.029760	1357.000000	
40.049210	1373.000000	
40.068660	1362.000000	
40.088110	1361.000000	
40.107560	1365.000000	
40.127010	1350.000000	
40.146460	1419.000000	
40.165910	1295.000000	
40.185360	1365.000000	
40.204810	1342.000000	
40.224260	1292.000000	
40.243710	1297.000000	
40.263160	1287.000000	
40.282610	1356.000000	
40.302060	1419.000000	
40.321510	1313.000000	
40.340960	1313.000000	
40.360410	1337.000000	
40.379860	1345.000000	
40.399310	1323.000000	
40.418760	1401.000000	
40.438210	1351.000000	
40.457660	1413.000000	
40.477110	1362.000000	
40.496560	1448.000000	
40.516010	1408.000000	
40.535460	1388.000000	
40.554910	1398.000000	
40.574360	1375.000000	
40.593810	1443.000000	
40.613260	1458.000000	
40.632710	1366.000000	
40.652160	1443.000000	
40.671610	1385.000000	
40.691060	1486.000000	
40.710510	1361.000000	
40.729960	1402.000000	
40.749410	1440.000000	
40.768860	1420.000000	
40.788310	1561.000000	
40.807760	1453.000000	
40.827210	1558.000000	
40.846660	1559.000000	
40.866110	1454.000000	
40.885560	1461.000000	
40.905010	1445.000000	
40.924460	1430.000000	
40.943910	1501.000000	
40.963360	1435.000000	
40.982810	1461.000000	
41.002260	1404.000000	
41.021710	1434.000000	
41.041160	1429.000000	
41.060610	1493.000000	
41.080060	1480.000000	
41.099510	1512.000000	
41.118970	1585.000000	
41.138410	1537.000000	
41.157860	1608.000000	
41.177310	1603.000000	
41.196770	1560.000000	
41.216210	1593.000000	
41.235660	1627.000000	
41.255120	1696.000000	
41.274560	1604.000000	
41.294010	1529.000000	
41.313470	1587.000000	
41.332920	1601.000000	
41.352360	1581.000000	
41.371810	1599.000000	
41.391270	1667.000000	
41.410720	1753.000000	
41.430160	1609.000000	
41.449620	1657.000000	
41.469070	1753.000000	
41.488520	1638.000000	
41.507970	1779.000000	
41.527420	1673.000000	
41.546870	1621.000000	
41.566310	1620.000000	
41.585770	1685.000000	
41.605220	1768.000000	
41.624670	1684.000000	
41.644120	1682.000000	
41.663570	1663.000000	
41.683020	1701.000000	
41.702470	1755.000000	
41.721920	1625.000000	
41.741370	1684.000000	
41.760820	1747.000000	
41.780270	1695.000000	
41.799720	1649.000000	
41.819170	1652.000000	
41.838620	1761.000000	
41.858070	1673.000000	
41.877520	1714.000000	
41.896970	1753.000000	
41.916420	1746.000000	
41.935870	1787.000000	
41.955320	1715.000000	
41.974770	1872.000000	
41.994220	1779.000000	
42.013670	1831.000000	
42.033120	1832.000000	
42.052570	1844.000000	
42.072020	1820.000000	
42.091470	1860.000000	
42.110920	1847.000000	
42.130370	1881.000000	
42.149820	1901.000000	
42.169270	1949.000000	
42.188720	1959.000000	
42.208170	1962.000000	
42.227620	1931.000000	
42.247070	2045.000000	
42.266520	2166.000000	
42.285970	2203.000000	
42.305420	2146.000000	
42.324870	2381.000000	
42.344320	2575.000000	
42.363770	2686.000000	
42.383220	2898.000000	
42.402670	3220.000000	
42.422120	3332.000000	
42.441570	3875.000000	
42.461020	4371.000000	
42.480470	4729.000000	
42.499920	5200.000000	
42.519370	5983.000000	
42.538820	7854.000000	
42.558270	11085.000000	
42.577720	15399.000000	
42.597170	20403.000000	
42.616620	29633.000000	
42.636070	42610.000000	
42.655520	53339.000000	
42.674970	55181.000000	
42.694420	49303.000000	
42.713870	36476.000000	
42.733320	28112.000000	
42.752770	27656.000000	
42.772220	29339.000000	
42.791670	27194.000000	
42.811120	21922.000000	
42.830570	13599.000000	
42.850030	7656.000000	
42.869470	5119.000000	
42.888920	4133.000000	
42.908370	3588.000000	
42.927830	3139.000000	
42.947270	2936.000000	
42.966720	2678.000000	
42.986180	2591.000000	
43.005630	2504.000000	
43.025070	2447.000000	
43.044530	2270.000000	
43.063980	2222.000000	
43.083420	2213.000000	
43.102870	2040.000000	
43.122330	2039.000000	
43.141780	1989.000000	
43.161220	1952.000000	
43.180680	2018.000000	
43.200130	2011.000000	
43.219580	1957.000000	
43.239030	1838.000000	
43.258480	1950.000000	
43.277930	1956.000000	
43.297380	1871.000000	
43.316830	1929.000000	
43.336280	1960.000000	
43.355730	1896.000000	
43.375180	1884.000000	
43.394630	1828.000000	
43.414080	1907.000000	
43.433530	1867.000000	
43.452980	1836.000000	
43.472430	1826.000000	
43.491880	1749.000000	
43.511330	1795.000000	
43.530780	1755.000000	
43.550230	1883.000000	
43.569680	1879.000000	
43.589130	1792.000000	
43.608580	1850.000000	
43.628030	1839.000000	
43.647480	1827.000000	
43.666930	1858.000000	
43.686380	1829.000000	
43.705830	1808.000000	
43.725280	1871.000000	
43.744730	1855.000000	
43.764180	1808.000000	
43.783630	1830.000000	
43.803080	1841.000000	
43.822530	1847.000000	
43.841980	1883.000000	
43.861430	1817.000000	
43.880880	1850.000000	
43.900330	1897.000000	
43.919780	1925.000000	
43.939230	1813.000000	
43.958680	1794.000000	
43.978130	1809.000000	
43.997580	1830.000000	
44.017030	1824.000000	
44.036480	1777.000000	
44.055930	1843.000000	
44.075380	1806.000000	
44.094830	1777.000000	
44.114280	1803.000000	
44.133730	1821.000000	
44.153180	1904.000000	
44.172630	1731.000000	
44.192080	1800.000000	
44.211530	1795.000000	
44.230980	1797.000000	
44.250430	1907.000000	
44.269880	1790.000000	
44.289330	1761.000000	
44.308780	1773.000000	
44.328230	1763.000000	
44.347680	1762.000000	
44.367130	1757.000000	
44.386580	1856.000000	
44.406030	1798.000000	
44.425480	1787.000000	
44.444930	1767.000000	
44.464380	1809.000000	
44.483830	1848.000000	
44.503280	1749.000000	
44.522740	1795.000000	
44.542180	1853.000000	
44.561630	1730.000000	
44.581090	1806.000000	
44.600530	1784.000000	
44.619980	1729.000000	
44.639430	1769.000000	
44.658890	1747.000000	
44.678330	1738.000000	
44.697780	1807.000000	
44.717240	1786.000000	
44.736690	1776.000000	
44.756130	1815.000000	
44.775590	1796.000000	
44.795040	1778.000000	
44.814490	1799.000000	
44.833930	1734.000000	
44.853390	1855.000000	
44.872840	1803.000000	
44.892280	1708.000000	
44.911740	1857.000000	
44.931190	1824.000000	
44.950640	1919.000000	
44.970090	1893.000000	
44.989540	1985.000000	
45.008990	2012.000000	
45.028440	2117.000000	
45.047890	2207.000000	
45.067340	2294.000000	
45.086790	2311.000000	
45.106240	2517.000000	
45.125690	2716.000000	
45.145140	2938.000000	
45.164590	3104.000000	
45.184040	3390.000000	
45.203490	3777.000000	
45.222940	4376.000000	
45.242390	5142.000000	
45.261840	6045.000000	
45.281290	7564.000000	
45.300740	9991.000000	
45.320190	14434.000000	
45.339640	20591.000000	
45.359090	29604.000000	
45.378540	36793.000000	
45.397990	35103.000000	
45.417440	30042.000000	
45.436890	22374.000000	
45.456340	17124.000000	
45.475790	17422.000000	
45.495240	19652.000000	
45.514690	18668.000000	
45.534140	15373.000000	
45.553590	11086.000000	
45.573040	6534.000000	
45.592490	4238.000000	
45.611940	3291.000000	
45.631390	2867.000000	
45.650840	2523.000000	
45.670290	2353.000000	
45.689740	2207.000000	
45.709190	2187.000000	
45.728640	2042.000000	
45.748090	2022.000000	
45.767540	1983.000000	
45.786990	1956.000000	
45.806440	1853.000000	
45.825890	1790.000000	
45.845340	1878.000000	
45.864790	1777.000000	
45.884240	1845.000000	
45.903690	1749.000000	
45.923140	1725.000000	
45.942590	1757.000000	
45.962040	1742.000000	
45.981490	1797.000000	
46.000940	1723.000000	
46.020390	1619.000000	
46.039840	1626.000000	
46.059290	1621.000000	
46.078740	1706.000000	
46.098190	1747.000000	
46.117640	1780.000000	
46.137090	1646.000000	
46.156540	1681.000000	
46.175990	1653.000000	
46.195440	1619.000000	
46.214890	1617.000000	
46.234340	1604.000000	
46.253800	1620.000000	
46.273240	1652.000000	
46.292690	1574.000000	
46.312150	1664.000000	
46.331600	1618.000000	
46.351040	1593.000000	
46.370490	1592.000000	
46.389950	1594.000000	
46.409390	1656.000000	
46.428840	1572.000000	
46.448300	1648.000000	
46.467750	1552.000000	
46.487190	1623.000000	
46.506650	1614.000000	
46.526100	1563.000000	
46.545550	1589.000000	
46.564990	1473.000000	
46.584450	1620.000000	
46.603900	1638.000000	
46.623340	1586.000000	
46.642800	1584.000000	
46.662250	1547.000000	
46.681700	1570.000000	
46.701150	1565.000000	
46.720600	1551.000000	
46.740050	1533.000000	
46.759500	1508.000000	
46.778950	1528.000000	
46.798400	1582.000000	
46.817850	1568.000000	
46.837300	1476.000000	
46.856750	1515.000000	
46.876200	1578.000000	
46.895650	1523.000000	
46.915100	1549.000000	
46.934550	1503.000000	
46.954000	1507.000000	
46.973450	1475.000000	
46.992900	1513.000000	
47.012350	1501.000000	
47.031800	1489.000000	
47.051250	1446.000000	
47.070700	1525.000000	
47.090150	1533.000000	
47.109600	1529.000000	
47.129050	1547.000000	
47.148500	1502.000000	
47.167950	1528.000000	
47.187400	1524.000000	
47.206850	1469.000000	
47.226300	1425.000000	
47.245750	1447.000000	
47.265200	1484.000000	
47.284650	1475.000000	
47.304100	1459.000000	
47.323550	1480.000000	
47.343000	1510.000000	
47.362450	1476.000000	
47.381900	1430.000000	
47.401350	1468.000000	
47.420800	1523.000000	
47.440250	1566.000000	
47.459700	1435.000000	
47.479150	1501.000000	
47.498600	1499.000000	
47.518050	1458.000000	
47.537500	1442.000000	
47.556950	1556.000000	
47.576400	1466.000000	
47.595850	1491.000000	
47.615300	1525.000000	
47.634750	1495.000000	
47.654200	1506.000000	
47.673650	1531.000000	
47.693100	1631.000000	
47.712550	1633.000000	
47.732000	1639.000000	
47.751450	1673.000000	
47.770900	1745.000000	
47.790350	1760.000000	
47.809800	1848.000000	
47.829250	1821.000000	
47.848710	2007.000000	
47.868150	2172.000000	
47.887600	2389.000000	
47.907050	2757.000000	
47.926500	3359.000000	
47.945950	4594.000000	
47.965400	6078.000000	
47.984860	7079.000000	
48.004300	7086.000000	
48.023750	6139.000000	
48.043210	4688.000000	
48.062660	3764.000000	
48.082100	3750.000000	
48.101550	4159.000000	
48.121010	4332.000000	
48.140460	4044.000000	
48.159900	3285.000000	
48.179360	2387.000000	
48.198810	1948.000000	
48.218250	1691.000000	
48.237710	1656.000000	
48.257160	1584.000000	
48.276610	1550.000000	
48.296050	1496.000000	
48.315510	1483.000000	
48.334960	1452.000000	
48.354410	1384.000000	
48.373860	1377.000000	
48.393310	1435.000000	
48.412760	1448.000000	
48.432210	1353.000000	
48.451660	1389.000000	
48.471110	1392.000000	
48.490560	1378.000000	
48.510010	1438.000000	
48.529460	1440.000000	
48.548910	1365.000000	
48.568360	1395.000000	
48.587810	1408.000000	
48.607260	1426.000000	
48.626710	1390.000000	
48.646160	1368.000000	
48.665610	1290.000000	
48.685060	1355.000000	
48.704510	1311.000000	
48.723960	1332.000000	
48.743410	1366.000000	
48.762860	1351.000000	
48.782310	1266.000000	
48.801760	1400.000000	
48.821210	1364.000000	
48.840660	1398.000000	
48.860110	1347.000000	
48.879560	1352.000000	
48.899010	1436.000000	
48.918460	1356.000000	
48.937910	1356.000000	
48.957360	1370.000000	
48.976810	1338.000000	
48.996260	1360.000000	
49.015710	1327.000000	
49.035160	1307.000000	
49.054610	1340.000000	
49.074060	1329.000000	
49.093510	1285.000000	
49.112960	1270.000000	
49.132410	1380.000000	
49.151860	1331.000000	
49.171310	1374.000000	
49.190760	1389.000000	
49.210210	1320.000000	
49.229660	1280.000000	
49.249110	1320.000000	
49.268560	1314.000000	
49.288010	1253.000000	
49.307460	1261.000000	
49.326910	1332.000000	
49.346360	1343.000000	
49.365810	1336.000000	
49.385260	1280.000000	
49.404710	1312.000000	
49.424160	1401.000000	
49.443610	1333.000000	
49.463060	1319.000000	
49.482510	1409.000000	
49.501960	1362.000000	
49.521410	1323.000000	
49.540860	1409.000000	
49.560310	1332.000000	
49.579770	1320.000000	
49.599210	1290.000000	
49.618660	1343.000000	
49.638110	1294.000000	
49.657570	1238.000000	
49.677010	1292.000000	
49.696460	1330.000000	
49.715920	1300.000000	
49.735360	1274.000000	
49.754810	1313.000000	
49.774270	1277.000000	
49.793720	1331.000000	
49.813160	1216.000000	
49.832610	1316.000000	
49.852070	1326.000000	
49.871520	1278.000000	
49.890960	1254.000000	
49.910420	1249.000000	
49.929870	1320.000000	
49.949310	1253.000000	
49.968770	1278.000000	
49.988220	1257.000000	
50.007670	1255.000000	
50.027110	1322.000000	
50.046570	1302.000000	
50.066020	1224.000000	
50.085470	1293.000000	
50.104920	1276.000000	
50.124370	1320.000000	
50.143820	1262.000000	
50.163270	1229.000000	
50.182720	1288.000000	
50.202170	1253.000000	
50.221620	1309.000000	
50.241070	1257.000000	
50.260520	1332.000000	
50.279970	1335.000000	
50.299420	1272.000000	
50.318870	1280.000000	
50.338320	1302.000000	
50.357770	1205.000000	
50.377220	1227.000000	
50.396670	1259.000000	
50.416120	1332.000000	
50.435570	1344.000000	
50.455020	1349.000000	
50.474470	1394.000000	
50.493920	1353.000000	
50.513370	1428.000000	
50.532820	1353.000000	
50.552270	1291.000000	
50.571720	1274.000000	
50.591170	1326.000000	
50.610620	1299.000000	
50.630070	1273.000000	
50.649520	1272.000000	
50.668970	1315.000000	
50.688420	1244.000000	
50.707870	1209.000000	
50.727320	1291.000000	
50.746770	1218.000000	
50.766220	1208.000000	
50.785670	1223.000000	
50.805120	1292.000000	
50.824570	1283.000000	
50.844020	1235.000000	
50.863470	1242.000000	
50.882920	1280.000000	
50.902370	1250.000000	
50.921820	1217.000000	
50.941270	1285.000000	
50.960720	1180.000000	
50.980170	1290.000000	
50.999620	1282.000000	
51.019070	1211.000000	
51.038520	1245.000000	
51.057970	1255.000000	
51.077420	1284.000000	
51.096870	1185.000000	
51.116320	1176.000000	
51.135770	1232.000000	
51.155220	1231.000000	
51.174670	1271.000000	
51.194120	1220.000000	
51.213570	1250.000000	
51.233020	1294.000000	
51.252470	1244.000000	
51.271920	1278.000000	
51.291370	1250.000000	
51.310830	1280.000000	
51.330270	1257.000000	
51.349720	1147.000000	
51.369170	1232.000000	
51.388630	1224.000000	
51.408070	1299.000000	
51.427520	1217.000000	
51.446980	1246.000000	
51.466430	1199.000000	
51.485870	1217.000000	
51.505330	1227.000000	
51.524780	1298.000000	
51.544220	1292.000000	
51.563670	1230.000000	
51.583130	1289.000000	
51.602580	1218.000000	
51.622020	1282.000000	
51.641480	1241.000000	
51.660930	1269.000000	
51.680380	1201.000000	
51.699830	1192.000000	
51.719280	1230.000000	
51.738730	1211.000000	
51.758170	1262.000000	
51.777630	1247.000000	
51.797080	1229.000000	
51.816530	1202.000000	
51.835980	1267.000000	
51.855430	1306.000000	
51.874880	1262.000000	
51.894330	1261.000000	
51.913780	1206.000000	
51.933230	1246.000000	
51.952680	1257.000000	
51.972130	1201.000000	
51.991580	1212.000000	
52.011030	1200.000000	
52.030480	1243.000000	
52.049930	1245.000000	
52.069380	1225.000000	
52.088830	1237.000000	
52.108280	1254.000000	
52.127730	1216.000000	
52.147180	1245.000000	
52.166630	1230.000000	
52.186080	1267.000000	
52.205530	1234.000000	
52.224980	1264.000000	
52.244430	1222.000000	
52.263880	1270.000000	
52.283330	1242.000000	
52.302780	1253.000000	
52.322230	1336.000000	
52.341680	1313.000000	
52.361130	1310.000000	
52.380580	1286.000000	
52.400030	1326.000000	
52.419480	1328.000000	
52.438930	1246.000000	
52.458380	1296.000000	
52.477830	1269.000000	
52.497280	1327.000000	
52.516730	1384.000000	
52.536180	1275.000000	
52.555630	1385.000000	
52.575080	1387.000000	
52.594530	1456.000000	
52.613980	1446.000000	
52.633430	1490.000000	
52.652880	1589.000000	
52.672330	1584.000000	
52.691780	1574.000000	
52.711230	1681.000000	
52.730680	1837.000000	
52.750130	1940.000000	
52.769580	2301.000000	
52.789030	2726.000000	
52.808480	3228.000000	
52.827930	4118.000000	
52.847380	5351.000000	
52.866830	6828.000000	
52.886280	8382.000000	
52.905740	8504.000000	
52.925180	7775.000000	
52.944630	6317.000000	
52.964080	4893.000000	
52.983540	4217.000000	
53.002980	4391.000000	
53.022430	4848.000000	
53.041890	5047.000000	
53.061330	4735.000000	
53.080780	3862.000000	
53.100230	2905.000000	
53.119690	2139.000000	
53.139130	1823.000000	
53.158580	1585.000000	
53.178040	1495.000000	
53.197490	1451.000000	
53.216930	1381.000000	
53.236390	1375.000000	
53.255840	1369.000000	
53.275280	1403.000000	
53.294730	1291.000000	
53.314190	1438.000000	
53.333640	1312.000000	
53.353080	1327.000000	
53.372540	1248.000000	
53.391990	1338.000000	
53.411440	1245.000000	
53.430890	1295.000000	
53.450340	1261.000000	
53.469790	1282.000000	
53.489240	1256.000000	
53.508690	1301.000000	
53.528140	1249.000000	
53.547590	1290.000000	
53.567040	1247.000000	
53.586490	1275.000000	
53.605940	1294.000000	
53.625390	1248.000000	
53.644840	1290.000000	
53.664290	1288.000000	
53.683740	1281.000000	
53.703190	1313.000000	
53.722640	1258.000000	
53.742090	1271.000000	
53.761540	1266.000000	
53.780990	1281.000000	
53.800440	1335.000000	
53.819890	1290.000000	
53.839340	1285.000000	
53.858790	1223.000000	
53.878240	1334.000000	
53.897690	1221.000000	
53.917140	1259.000000	
53.936590	1216.000000	
53.956040	1307.000000	
53.975490	1282.000000	
53.994940	1225.000000	
54.014390	1273.000000	
54.033840	1273.000000	
54.053290	1292.000000	
54.072740	1244.000000	
54.092190	1224.000000	
54.111640	1280.000000	
54.131090	1221.000000	
54.150540	1239.000000	
54.169990	1270.000000	
54.189440	1269.000000	
54.208890	1318.000000	
54.228340	1352.000000	
54.247790	1311.000000	
54.267240	1302.000000	
54.286690	1321.000000	
54.306140	1286.000000	
54.325590	1306.000000	
54.345040	1232.000000	
54.364490	1251.000000	
54.383940	1208.000000	
54.403390	1302.000000	
54.422840	1375.000000	
54.442290	1262.000000	
54.461740	1278.000000	
54.481190	1247.000000	
54.500640	1272.000000	
54.520090	1308.000000	
54.539540	1270.000000	
54.558990	1354.000000	
54.578440	1245.000000	
54.597890	1231.000000	
54.617340	1220.000000	
54.636800	1285.000000	
54.656240	1243.000000	
54.675690	1354.000000	
54.695140	1264.000000	
54.714600	1314.000000	
54.734040	1271.000000	
54.753490	1286.000000	
54.772950	1277.000000	
54.792400	1346.000000	
54.811840	1417.000000	
54.831300	1323.000000	
54.850750	1323.000000	
54.870190	1350.000000	
54.889640	1450.000000	
54.909100	1465.000000	
54.928550	1455.000000	
54.947990	1510.000000	
54.967450	1572.000000	
54.986900	1674.000000	
55.006350	1667.000000	
