;content of MAPbBr3.uxd - (Diffrac Plus V4 file)
_FILEVERSION = 3
_SAMPLE = MAPbBr3
_+SAMPLE
_USER = Lab Manager
_GONIOMETER_CODE = 21
_STAGE_CODE = 0
; Goniometer : D8 theta/theta, stage : Standard
_SAMPLE_CHANGER_CODE = 0
_ATTACHMENTS_CODE = 0
_GONIOMETER_RADIUS = 250
_FIXED_DIVSLIT = 1
_MONOCHROMATOR = 0
; Incident beam monochromator : None
_BETA_FILTER = N
_FIXED_ANTISLIT = 18
_ANALYZER_CODE = 0
; Received beam analyzer : None
_DATEMEASURED = 28-Jul-2026 08:52:16
_RUNTIME = 1637.335
_WL_UNIT = A
_WL1 = 1.5406
_WL2 = 1.54439
_WL3 = 1.39222
_WLRATIO = 0.5
_ANODE = Cu
_V4_INF_USER = Lab Manager
_V4_INF_SAMPLEID = MAPbBr3
_V4_INF_CREATOR = DatToUxdConverter
_V4_INF_CREATOR_VERSION = 1.0.0.0

; Data for range 1
_DRIVE = COUPLED
_STEPTIME = 1
_STEPSIZE = 0.019449999999999967
_STEPMODE = C
_START = 5.0001
_THETA = 2.50005
_2THETA = 5.0001
_DETECTORSLIT = out
_TIMESTARTED = 0
_KV = 40
_MA = 40
_RANGE_WL = 1.5406
_3DPLANE = 0
_V4_PSD2THETA = 9999
_V4_PSDCHANNEL1 = 0
_V4_PSDAPERTURE = 2.745898
_V4_PSDTYPE = 5
_V4_PSDFIXED = 0
_V4_COUNTERS_MASK = 1
_V4_DRIVES_MASK = 0
_V4_ENCODERS_MASK = 0
_2THETACOUNTS = 1
; 2THETA	Cnt2_D1	
5.000100	4494.000000	
5.019550	4582.000000	
5.039000	4593.000000	
5.058450	4531.000000	
5.077900	4640.000000	
5.097350	4426.000000	
5.116800	4579.000000	
5.136250	4518.000000	
5.155700	4764.000000	
5.175150	4409.000000	
5.194600	4526.000000	
5.214050	4594.000000	
5.233500	4626.000000	
5.252950	4499.000000	
5.272400	4462.000000	
5.291850	4468.000000	
5.311300	4499.000000	
5.330750	4337.000000	
5.350200	4486.000000	
5.369650	4431.000000	
5.389100	4407.000000	
5.408550	4451.000000	
5.428000	4462.000000	
5.447450	4438.000000	
5.466900	4376.000000	
5.486350	4327.000000	
5.505800	4359.000000	
5.525250	4371.000000	
5.544700	4319.000000	
5.564150	4314.000000	
5.583600	4398.000000	
5.603050	4257.000000	
5.622500	4304.000000	
5.641950	4306.000000	
5.661400	4279.000000	
5.680850	4268.000000	
5.700300	4323.000000	
5.719750	4230.000000	
5.739200	4289.000000	
5.758650	4234.000000	
5.778100	4326.000000	
5.797550	4195.000000	
5.817010	4031.000000	
5.836450	4260.000000	
5.855910	4191.000000	
5.875360	4043.000000	
5.894810	4276.000000	
5.914260	4116.000000	
5.933710	4179.000000	
5.953160	4181.000000	
5.972610	4149.000000	
5.992060	4148.000000	
6.011510	4151.000000	
6.030960	4041.000000	
6.050410	4112.000000	
6.069860	4137.000000	
6.089310	4181.000000	
6.108760	4207.000000	
6.128210	4108.000000	
6.147660	4025.000000	
6.167110	4109.000000	
6.186560	4075.000000	
6.206010	4023.000000	
6.225460	4084.000000	
6.244910	3974.000000	
6.264360	4042.000000	
6.283810	3971.000000	
6.303260	3960.000000	
6.322710	3887.000000	
6.342160	4029.000000	
6.361610	3942.000000	
6.381060	4057.000000	
6.400510	4034.000000	
6.419960	3948.000000	
6.439410	3821.000000	
6.458860	3985.000000	
6.478310	3938.000000	
6.497760	3880.000000	
6.517210	3866.000000	
6.536660	3871.000000	
6.556110	3826.000000	
6.575560	3887.000000	
6.595010	3951.000000	
6.614460	3832.000000	
6.633910	3835.000000	
6.653360	3710.000000	
6.672810	3750.000000	
6.692260	3810.000000	
6.711710	3877.000000	
6.731160	3825.000000	
6.750610	3764.000000	
6.770060	3756.000000	
6.789510	3732.000000	
6.808960	3769.000000	
6.828410	3594.000000	
6.847860	3611.000000	
6.867310	3624.000000	
6.886760	3694.000000	
6.906210	3710.000000	
6.925660	3671.000000	
6.945110	3540.000000	
6.964560	3760.000000	
6.984010	3853.000000	
7.003460	3623.000000	
7.022910	3552.000000	
7.042360	3588.000000	
7.061810	3708.000000	
7.081260	3605.000000	
7.100710	3648.000000	
7.120160	3548.000000	
7.139610	3563.000000	
7.159060	3511.000000	
7.178510	3474.000000	
7.197960	3514.000000	
7.217410	3607.000000	
7.236860	3430.000000	
7.256310	3482.000000	
7.275760	3392.000000	
7.295210	3504.000000	
7.314660	3434.000000	
7.334110	3413.000000	
7.353560	3532.000000	
7.373010	3501.000000	
7.392460	3354.000000	
7.411910	3453.000000	
7.431360	3372.000000	
7.450810	3380.000000	
7.470260	3427.000000	
7.489710	3400.000000	
7.509160	3381.000000	
7.528610	3362.000000	
7.548070	3329.000000	
7.567520	3335.000000	
7.586970	3316.000000	
7.606420	3285.000000	
7.625870	3341.000000	
7.645320	3294.000000	
7.664770	3259.000000	
7.684220	3229.000000	
7.703670	3314.000000	
7.723120	3276.000000	
7.742570	3252.000000	
7.762020	3262.000000	
7.781470	3160.000000	
7.800920	3232.000000	
7.820370	3189.000000	
7.839820	3166.000000	
7.859270	3135.000000	
7.878720	3049.000000	
7.898170	3050.000000	
7.917620	3057.000000	
7.937070	3122.000000	
7.956520	3146.000000	
7.975970	3186.000000	
7.995420	3192.000000	
8.014870	3058.000000	
8.034320	3081.000000	
8.053770	2991.000000	
8.073220	2961.000000	
8.092670	3025.000000	
8.112120	3036.000000	
8.131570	2957.000000	
8.151020	3020.000000	
8.170470	3061.000000	
8.189920	3031.000000	
8.209370	2992.000000	
8.228820	2955.000000	
8.248270	2894.000000	
8.267720	2948.000000	
8.287170	2878.000000	
8.306620	3000.000000	
8.326070	2851.000000	
8.345520	2837.000000	
8.364970	2854.000000	
8.384420	2805.000000	
8.403870	2741.000000	
8.423320	2677.000000	
8.442770	2889.000000	
8.462220	2875.000000	
8.481670	2805.000000	
8.501120	2762.000000	
8.520570	2753.000000	
8.540020	2783.000000	
8.559470	2739.000000	
8.578920	2855.000000	
8.598370	2724.000000	
8.617820	2793.000000	
8.637270	2750.000000	
8.656720	2840.000000	
8.676170	2787.000000	
8.695620	2720.000000	
8.715070	2718.000000	
8.734520	2696.000000	
8.753970	2741.000000	
8.773420	2681.000000	
8.792870	2691.000000	
8.812320	2700.000000	
8.831770	2623.000000	
8.851220	2724.000000	
8.870670	2680.000000	
8.890120	2549.000000	
8.909570	2548.000000	
8.929020	2557.000000	
8.948470	2610.000000	
8.967920	2588.000000	
8.987370	2503.000000	
9.006820	2644.000000	
9.026270	2455.000000	
9.045720	2559.000000	
9.065170	2436.000000	
9.084620	2565.000000	
9.104070	2554.000000	
9.123520	2407.000000	
9.142970	2472.000000	
9.162430	2519.000000	
9.181880	2522.000000	
9.201330	2412.000000	
9.220770	2522.000000	
9.240220	2425.000000	
9.259680	2487.000000	
9.279130	2461.000000	
9.298580	2532.000000	
9.318030	2383.000000	
9.337480	2392.000000	
9.356930	2385.000000	
9.376380	2398.000000	
9.395830	2335.000000	
9.415280	2441.000000	
9.434730	2323.000000	
9.454180	2382.000000	
9.473630	2382.000000	
9.493080	2323.000000	
9.512530	2350.000000	
9.531980	2336.000000	
9.551430	2325.000000	
9.570880	2288.000000	
9.590330	2285.000000	
9.609780	2320.000000	
9.629230	2365.000000	
9.648680	2334.000000	
9.668130	2210.000000	
9.687580	2225.000000	
9.707030	2223.000000	
9.726480	2240.000000	
9.745930	2191.000000	
9.765380	2263.000000	
9.784830	2105.000000	
9.804280	2252.000000	
9.823730	2187.000000	
9.843180	2166.000000	
9.862630	2240.000000	
9.882080	2130.000000	
9.901530	2154.000000	
9.920980	2077.000000	
9.940430	2125.000000	
9.959880	2171.000000	
9.979330	2066.000000	
9.998780	2120.000000	
10.018230	2038.000000	
10.037680	2021.000000	
10.057130	2117.000000	
10.076580	2027.000000	
10.096030	2075.000000	
10.115480	2014.000000	
10.134930	2060.000000	
10.154380	2075.000000	
10.173830	1974.000000	
10.193280	2019.000000	
10.212730	2051.000000	
10.232180	2043.000000	
10.251630	2034.000000	
10.271080	1954.000000	
10.290530	2011.000000	
10.309980	1953.000000	
10.329430	1897.000000	
10.348880	1917.000000	
10.368330	1967.000000	
10.387780	1952.000000	
10.407230	2007.000000	
10.426680	1932.000000	
10.446130	1872.000000	
10.465580	1998.000000	
10.485030	1916.000000	
10.504480	1869.000000	
10.523930	1876.000000	
10.543380	1858.000000	
10.562830	1875.000000	
10.582280	1820.000000	
10.601730	1830.000000	
10.621180	1830.000000	
10.640630	1802.000000	
10.660080	1825.000000	
10.679530	1820.000000	
10.698980	1874.000000	
10.718430	1848.000000	
10.737880	1830.000000	
10.757330	1842.000000	
10.776780	1818.000000	
10.796230	1870.000000	
10.815680	1855.000000	
10.835130	1803.000000	
10.854580	1801.000000	
10.874030	1781.000000	
10.893490	1788.000000	
10.912940	1718.000000	
10.932390	1720.000000	
10.951840	1722.000000	
10.971290	1759.000000	
10.990740	1688.000000	
11.010190	1768.000000	
11.029640	1661.000000	
11.049090	1729.000000	
11.068540	1765.000000	
11.087990	1732.000000	
11.107440	1694.000000	
11.126890	1677.000000	
11.146340	1659.000000	
11.165790	1654.000000	
11.185240	1609.000000	
11.204690	1690.000000	
11.224140	1701.000000	
11.243590	1716.000000	
11.263040	1655.000000	
11.282490	1730.000000	
11.301940	1680.000000	
11.321390	1684.000000	
11.340840	1695.000000	
11.360290	1629.000000	
11.379740	1617.000000	
11.399190	1600.000000	
11.418640	1607.000000	
11.438090	1607.000000	
11.457540	1657.000000	
11.476990	1596.000000	
11.496440	1558.000000	
11.515890	1593.000000	
11.535340	1526.000000	
11.554790	1593.000000	
11.574240	1594.000000	
11.593690	1586.000000	
11.613140	1561.000000	
11.632590	1458.000000	
11.652040	1583.000000	
11.671490	1531.000000	
11.690940	1573.000000	
11.710390	1593.000000	
11.729840	1649.000000	
11.749290	1513.000000	
11.768740	1480.000000	
11.788190	1504.000000	
11.807640	1540.000000	
11.827090	1549.000000	
11.846540	1496.000000	
11.865990	1530.000000	
11.885440	1519.000000	
11.904890	1431.000000	
11.924340	1456.000000	
11.943790	1474.000000	
11.963240	1486.000000	
11.982690	1550.000000	
12.002140	1486.000000	
12.021590	1490.000000	
12.041040	1493.000000	
12.060490	1488.000000	
12.079940	1508.000000	
12.099390	1478.000000	
12.118840	1398.000000	
12.138290	1457.000000	
12.157740	1518.000000	
12.177190	1386.000000	
12.196640	1456.000000	
12.216090	1517.000000	
12.235540	1394.000000	
12.254990	1343.000000	
12.274440	1460.000000	
12.293890	1448.000000	
12.313340	1360.000000	
12.332790	1384.000000	
12.352240	1402.000000	
12.371690	1466.000000	
12.391140	1381.000000	
12.410590	1393.000000	
12.430040	1391.000000	
12.449490	1426.000000	
12.468940	1360.000000	
12.488390	1421.000000	
12.507840	1332.000000	
12.527300	1363.000000	
12.546740	1382.000000	
12.566190	1329.000000	
12.585640	1351.000000	
12.605090	1446.000000	
12.624550	1449.000000	
12.644000	1398.000000	
12.663450	1349.000000	
12.682900	1343.000000	
12.702350	1397.000000	
12.721800	1380.000000	
12.741250	1349.000000	
12.760700	1321.000000	
12.780150	1273.000000	
12.799600	1400.000000	
12.819050	1353.000000	
12.838500	1307.000000	
12.857950	1336.000000	
12.877400	1328.000000	
12.896850	1340.000000	
12.916300	1343.000000	
12.935750	1302.000000	
12.955200	1325.000000	
12.974650	1255.000000	
12.994100	1365.000000	
13.013550	1333.000000	
13.033000	1299.000000	
13.052450	1250.000000	
13.071900	1393.000000	
13.091350	1259.000000	
13.110800	1255.000000	
13.130250	1310.000000	
13.149700	1271.000000	
13.169150	1301.000000	
13.188600	1240.000000	
13.208050	1256.000000	
13.227500	1292.000000	
13.246950	1327.000000	
13.266400	1291.000000	
13.285850	1258.000000	
13.305300	1231.000000	
13.324750	1305.000000	
13.344200	1267.000000	
13.363650	1277.000000	
13.383100	1312.000000	
13.402550	1279.000000	
13.422000	1281.000000	
13.441450	1263.000000	
13.460900	1297.000000	
13.480350	1268.000000	
13.499800	1298.000000	
13.519250	1418.000000	
13.538700	1350.000000	
13.558150	1382.000000	
13.577600	1472.000000	
13.597050	1452.000000	
13.616500	1384.000000	
13.635950	1314.000000	
13.655400	1352.000000	
13.674850	1318.000000	
13.694300	1218.000000	
13.713750	1172.000000	
13.733200	1199.000000	
13.752650	1198.000000	
13.772100	1246.000000	
13.791550	1213.000000	
13.811000	1206.000000	
13.830450	1253.000000	
13.849900	1151.000000	
13.869350	1191.000000	
13.888800	1197.000000	
13.908250	1150.000000	
13.927700	1183.000000	
13.947150	1119.000000	
13.966600	1184.000000	
13.986050	1209.000000	
14.005500	1233.000000	
14.024950	1210.000000	
14.044400	1213.000000	
14.063850	1164.000000	
14.083300	1259.000000	
14.102750	1175.000000	
14.122200	1145.000000	
14.141650	1140.000000	
14.161100	1141.000000	
14.180550	1212.000000	
14.200000	1164.000000	
14.219450	1215.000000	
14.238900	1185.000000	
14.258360	1189.000000	
14.277810	1293.000000	
14.297260	1199.000000	
14.316710	1225.000000	
14.336150	1203.000000	
14.355610	1250.000000	
14.375060	1218.000000	
14.394510	1277.000000	
14.413960	1270.000000	
14.433410	1352.000000	
14.452860	1480.000000	
14.472310	1517.000000	
14.491760	1616.000000	
14.511210	1722.000000	
14.530660	1766.000000	
14.550110	1889.000000	
14.569560	2111.000000	
14.589010	2187.000000	
14.608460	2332.000000	
14.627910	2528.000000	
14.647360	2772.000000	
14.666810	2863.000000	
14.686260	3398.000000	
14.705710	3841.000000	
14.725160	4307.000000	
14.744610	4678.000000	
14.764060	5227.000000	
14.783510	5991.000000	
14.802960	6850.000000	
14.822410	8185.000000	
14.841860	9439.000000	
14.861310	11056.000000	
14.880760	12386.000000	
14.900210	15429.000000	
14.919660	20468.000000	
14.939110	27609.000000	
14.958560	36065.000000	
14.978010	45217.000000	
14.997460	56786.000000	
15.016910	66425.000000	
15.036360	72091.000000	
15.055810	75188.000000	
15.075260	80621.000000	
15.094710	78564.000000	
15.114160	56762.000000	
15.133610	34522.000000	
15.153060	17018.000000	
15.172510	6504.000000	
15.191960	4015.000000	
15.211410	3433.000000	
15.230860	3091.000000	
15.250310	2885.000000	
15.269760	2703.000000	
15.289210	2484.000000	
15.308660	2314.000000	
15.328110	2089.000000	
15.347560	2003.000000	
15.367010	1799.000000	
15.386460	1686.000000	
15.405910	1604.000000	
15.425360	1523.000000	
15.444810	1563.000000	
15.464260	1522.000000	
15.483710	1503.000000	
15.503160	1478.000000	
15.522610	1474.000000	
15.542060	1437.000000	
15.561510	1355.000000	
15.580960	1396.000000	
15.600410	1366.000000	
15.619860	1375.000000	
15.639310	1322.000000	
15.658760	1376.000000	
15.678210	1335.000000	
15.697660	1358.000000	
15.717110	1366.000000	
15.736560	1312.000000	
15.756010	1364.000000	
15.775460	1372.000000	
15.794910	1271.000000	
15.814360	1342.000000	
15.833810	1327.000000	
15.853260	1263.000000	
15.872710	1279.000000	
15.892160	1200.000000	
15.911610	1298.000000	
15.931060	1265.000000	
15.950510	1302.000000	
15.969960	1233.000000	
15.989420	1228.000000	
16.008870	1228.000000	
16.028310	1184.000000	
16.047770	1249.000000	
16.067210	1203.000000	
16.086670	1269.000000	
16.106120	1133.000000	
16.125570	1248.000000	
16.145020	1216.000000	
16.164470	1182.000000	
16.183920	1200.000000	
16.203370	1205.000000	
16.222820	1197.000000	
16.242270	1186.000000	
16.261720	1161.000000	
16.281170	1208.000000	
16.300620	1125.000000	
16.320070	1132.000000	
16.339520	1170.000000	
16.358970	1198.000000	
16.378420	1115.000000	
16.397870	1117.000000	
16.417320	1130.000000	
16.436770	1174.000000	
16.456220	1151.000000	
16.475670	1139.000000	
16.495120	1106.000000	
16.514570	1123.000000	
16.534020	1152.000000	
16.553470	1063.000000	
16.572920	1063.000000	
16.592370	1120.000000	
16.611820	1099.000000	
16.631270	1048.000000	
16.650720	1082.000000	
16.670170	1045.000000	
16.689620	1158.000000	
16.709070	1105.000000	
16.728520	1063.000000	
16.747970	1138.000000	
16.767420	1110.000000	
16.786870	1045.000000	
16.806320	1059.000000	
16.825770	1127.000000	
16.845220	1097.000000	
16.864670	1064.000000	
16.884120	1008.000000	
16.903570	1071.000000	
16.923020	1017.000000	
16.942470	1081.000000	
16.961920	1059.000000	
16.981370	993.000000	
17.000820	1074.000000	
17.020270	1041.000000	
17.039720	1053.000000	
17.059170	1097.000000	
17.078620	1058.000000	
17.098070	1114.000000	
17.117520	1003.000000	
17.136970	987.000000	
17.156420	999.000000	
17.175870	1002.000000	
17.195320	1059.000000	
17.214770	990.000000	
17.234220	960.000000	
17.253670	1003.000000	
17.273120	1026.000000	
17.292570	1035.000000	
17.312020	1007.000000	
17.331470	971.000000	
17.350920	997.000000	
17.370370	1019.000000	
17.389820	942.000000	
17.409270	989.000000	
17.428720	1011.000000	
17.448170	1026.000000	
17.467620	973.000000	
17.487070	964.000000	
17.506530	996.000000	
17.525970	1040.000000	
17.545420	1042.000000	
17.564870	1012.000000	
17.584320	1004.000000	
17.603780	986.000000	
17.623220	970.000000	
17.642680	963.000000	
17.662120	946.000000	
17.681580	908.000000	
17.701030	924.000000	
17.720480	921.000000	
17.739930	905.000000	
17.759380	919.000000	
17.778830	887.000000	
17.798270	955.000000	
17.817730	921.000000	
17.837180	959.000000	
17.856630	961.000000	
17.876080	891.000000	
17.895530	924.000000	
17.914980	875.000000	
17.934430	976.000000	
17.953880	948.000000	
17.973330	910.000000	
17.992780	984.000000	
18.012230	935.000000	
18.031680	897.000000	
18.051130	905.000000	
18.070580	968.000000	
18.090030	932.000000	
18.109480	941.000000	
18.128930	892.000000	
18.148380	945.000000	
18.167830	932.000000	
18.187280	961.000000	
18.206730	903.000000	
18.226180	934.000000	
18.245630	871.000000	
18.265080	944.000000	
18.284530	901.000000	
18.303980	948.000000	
18.323430	935.000000	
18.342880	915.000000	
18.362330	925.000000	
18.381780	904.000000	
18.401230	884.000000	
18.420680	900.000000	
18.440130	928.000000	
18.459580	913.000000	
18.479030	886.000000	
18.498480	888.000000	
18.517930	933.000000	
18.537380	922.000000	
18.556830	918.000000	
18.576280	913.000000	
18.595730	851.000000	
18.615180	921.000000	
18.634630	937.000000	
18.654080	870.000000	
18.673530	898.000000	
18.692980	865.000000	
18.712430	909.000000	
18.731880	921.000000	
18.751330	883.000000	
18.770780	905.000000	
18.790230	947.000000	
18.809680	901.000000	
18.829130	926.000000	
18.848580	926.000000	
18.868030	883.000000	
18.887480	946.000000	
18.906930	937.000000	
18.926380	942.000000	
18.945830	831.000000	
18.965280	915.000000	
18.984730	923.000000	
19.004180	878.000000	
19.023630	949.000000	
19.043080	887.000000	
19.062530	914.000000	
19.081980	906.000000	
19.101430	849.000000	
19.120880	888.000000	
19.140330	928.000000	
19.159780	935.000000	
19.179230	935.000000	
19.198680	948.000000	
19.218130	958.000000	
19.237590	959.000000	
19.257030	1052.000000	
19.276490	987.000000	
19.295930	882.000000	
19.315380	917.000000	
19.334840	877.000000	
19.354280	914.000000	
19.373740	914.000000	
19.393180	887.000000	
19.412640	869.000000	
19.432090	859.000000	
19.451540	914.000000	
19.470990	904.000000	
19.490440	889.000000	
19.509890	886.000000	
19.529340	900.000000	
19.548790	920.000000	
19.568240	874.000000	
19.587690	885.000000	
19.607140	868.000000	
19.626590	856.000000	
19.646040	922.000000	
19.665490	887.000000	
19.684940	906.000000	
19.704390	862.000000	
19.723840	870.000000	
19.743290	907.000000	
19.762740	858.000000	
19.782190	871.000000	
19.801640	893.000000	
19.821090	837.000000	
19.840540	877.000000	
19.859990	890.000000	
19.879440	950.000000	
19.898890	839.000000	
19.918340	914.000000	
19.937790	885.000000	
19.957240	893.000000	
19.976690	901.000000	
19.996140	889.000000	
20.015590	904.000000	
20.035040	937.000000	
20.054490	858.000000	
20.073940	890.000000	
20.093390	847.000000	
20.112840	883.000000	
20.132290	857.000000	
20.151740	900.000000	
20.171190	962.000000	
20.190640	888.000000	
20.210090	906.000000	
20.229540	861.000000	
20.248990	886.000000	
20.268440	866.000000	
20.287890	896.000000	
20.307340	922.000000	
20.326790	904.000000	
20.346240	903.000000	
20.365690	944.000000	
20.385140	898.000000	
20.404590	834.000000	
20.424040	910.000000	
20.443490	878.000000	
20.462940	892.000000	
20.482390	955.000000	
20.501840	922.000000	
20.521290	950.000000	
20.540740	926.000000	
20.560190	990.000000	
20.579640	1025.000000	
20.599090	984.000000	
20.618540	1118.000000	
20.637990	1082.000000	
20.657440	1070.000000	
20.676890	1081.000000	
20.696340	1089.000000	
20.715790	1110.000000	
20.735240	1106.000000	
20.754690	1128.000000	
20.774140	1136.000000	
20.793590	1065.000000	
20.813040	1155.000000	
20.832490	1193.000000	
20.851940	1205.000000	
20.871390	1263.000000	
20.890840	1275.000000	
20.910290	1272.000000	
20.929740	1361.000000	
20.949190	1434.000000	
20.968650	1608.000000	
20.988090	1760.000000	
21.007550	1771.000000	
21.026990	2021.000000	
21.046450	2086.000000	
21.065900	2390.000000	
21.085350	2749.000000	
21.104800	3343.000000	
21.124240	3955.000000	
21.143700	5015.000000	
21.163150	6193.000000	
21.182600	7899.000000	
21.202050	9906.000000	
21.221500	12540.000000	
21.240950	16409.000000	
21.260400	21619.000000	
21.279850	26576.000000	
21.299300	32647.000000	
21.318750	38240.000000	
21.338200	36054.000000	
21.357650	31952.000000	
21.377100	20792.000000	
21.396550	14468.000000	
21.416000	9330.000000	
21.435450	3724.000000	
21.454900	2333.000000	
21.474350	1884.000000	
21.493800	1762.000000	
21.513250	1693.000000	
21.532700	1635.000000	
21.552150	1526.000000	
21.571600	1445.000000	
21.591050	1331.000000	
21.610500	1289.000000	
21.629950	1203.000000	
21.649400	1145.000000	
21.668850	1147.000000	
21.688300	1135.000000	
21.707750	1153.000000	
21.727200	1022.000000	
21.746650	1074.000000	
21.766100	1063.000000	
21.785550	1044.000000	
21.805000	1032.000000	
21.824450	1043.000000	
21.843900	1020.000000	
21.863350	1002.000000	
21.882800	1093.000000	
21.902250	1020.000000	
21.921700	1044.000000	
21.941150	1061.000000	
21.960600	1090.000000	
21.980050	1074.000000	
21.999500	1092.000000	
22.018950	1024.000000	
22.038400	1013.000000	
22.057850	1030.000000	
22.077300	993.000000	
22.096750	1007.000000	
22.116200	999.000000	
22.135650	975.000000	
22.155100	966.000000	
22.174550	986.000000	
22.194000	1030.000000	
22.213450	1024.000000	
22.232900	993.000000	
22.252350	965.000000	
22.271800	996.000000	
22.291250	971.000000	
22.310700	971.000000	
22.330150	990.000000	
22.349600	960.000000	
22.369050	997.000000	
22.388500	998.000000	
22.407950	971.000000	
22.427400	1060.000000	
22.446850	949.000000	
22.466300	961.000000	
22.485750	967.000000	
22.505200	925.000000	
22.524650	997.000000	
22.544100	1005.000000	
22.563550	877.000000	
22.583000	986.000000	
22.602460	972.000000	
22.621900	996.000000	
22.641350	1006.000000	
22.660800	1004.000000	
22.680250	975.000000	
22.699710	1006.000000	
22.719150	999.000000	
22.738610	932.000000	
22.758050	1013.000000	
22.777510	950.000000	
22.796960	1011.000000	
22.816410	1057.000000	
22.835860	982.000000	
22.855310	999.000000	
22.874760	989.000000	
22.894210	1032.000000	
22.913660	1015.000000	
22.933110	974.000000	
22.952560	952.000000	
22.972010	965.000000	
22.991460	927.000000	
23.010910	1036.000000	
23.030360	1017.000000	
23.049810	988.000000	
23.069260	1002.000000	
23.088710	995.000000	
23.108160	893.000000	
23.127610	986.000000	
23.147060	961.000000	
23.166510	920.000000	
23.185960	954.000000	
23.205410	957.000000	
23.224860	955.000000	
23.244310	955.000000	
23.263760	985.000000	
23.283210	966.000000	
23.302660	979.000000	
23.322110	1017.000000	
23.341560	990.000000	
23.361010	960.000000	
23.380460	1006.000000	
23.399910	945.000000	
23.419360	994.000000	
23.438810	955.000000	
23.458260	995.000000	
23.477710	1013.000000	
23.497160	974.000000	
23.516610	958.000000	
23.536060	968.000000	
23.555510	970.000000	
23.574960	981.000000	
23.594410	1046.000000	
23.613860	1012.000000	
23.633310	1000.000000	
23.652760	952.000000	
23.672210	1009.000000	
23.691660	978.000000	
23.711110	1039.000000	
23.730560	983.000000	
23.750010	1049.000000	
23.769460	1077.000000	
23.788910	1008.000000	
23.808360	983.000000	
23.827810	974.000000	
23.847260	1061.000000	
23.866710	994.000000	
23.886160	1062.000000	
23.905610	1005.000000	
23.925060	1001.000000	
23.944510	1037.000000	
23.963960	974.000000	
23.983410	997.000000	
24.002860	969.000000	
24.022310	1042.000000	
24.041760	989.000000	
24.061210	958.000000	
24.080660	932.000000	
24.100110	991.000000	
24.119560	1051.000000	
24.139010	979.000000	
24.158460	1015.000000	
24.177910	1023.000000	
24.197360	992.000000	
24.216810	954.000000	
24.236260	961.000000	
24.255710	1049.000000	
24.275160	963.000000	
24.294610	1018.000000	
24.314060	993.000000	
24.333520	1015.000000	
24.352960	1019.000000	
24.372420	1004.000000	
24.391860	1044.000000	
24.411310	1022.000000	
24.430770	1020.000000	
24.450210	1075.000000	
24.469670	1030.000000	
24.489110	1091.000000	
24.508570	1025.000000	
24.528020	1005.000000	
24.547470	1050.000000	
24.566920	1037.000000	
24.586370	1047.000000	
24.605820	1043.000000	
24.625270	1072.000000	
24.644720	1044.000000	
24.664170	1080.000000	
24.683620	1083.000000	
24.703070	1024.000000	
24.722520	1050.000000	
24.741970	1090.000000	
24.761420	1002.000000	
24.780870	1060.000000	
24.800320	1074.000000	
24.819770	1005.000000	
24.839220	1034.000000	
24.858670	1036.000000	
24.878120	1034.000000	
24.897570	1051.000000	
24.917020	1051.000000	
24.936470	989.000000	
24.955920	1016.000000	
24.975370	1039.000000	
24.994820	1026.000000	
25.014270	1009.000000	
25.033720	1051.000000	
25.053170	1013.000000	
25.072620	1040.000000	
25.092070	996.000000	
25.111520	1041.000000	
25.130970	991.000000	
25.150420	1006.000000	
25.169870	1039.000000	
25.189320	983.000000	
25.208770	1050.000000	
25.228220	1075.000000	
25.247670	1008.000000	
25.267120	1089.000000	
25.286570	1052.000000	
25.306020	965.000000	
25.325470	1023.000000	
25.344920	1057.000000	
25.364370	1063.000000	
25.383820	964.000000	
25.403270	1036.000000	
25.422720	1002.000000	
25.442170	1014.000000	
25.461620	1062.000000	
25.481070	1065.000000	
25.500520	1031.000000	
25.519970	1040.000000	
25.539420	1082.000000	
25.558870	1077.000000	
25.578320	1072.000000	
25.597770	1045.000000	
25.617220	1007.000000	
25.636670	1072.000000	
25.656120	1050.000000	
25.675570	1083.000000	
25.695020	1017.000000	
25.714470	1038.000000	
25.733920	1047.000000	
25.753370	1047.000000	
25.772820	963.000000	
25.792270	1098.000000	
25.811720	1081.000000	
25.831170	1031.000000	
25.850620	1045.000000	
25.870070	1084.000000	
25.889520	1081.000000	
25.908970	1110.000000	
25.928420	1135.000000	
25.947870	1106.000000	
25.967320	1183.000000	
25.986770	1173.000000	
26.006220	1211.000000	
26.025670	1277.000000	
26.045120	1419.000000	
26.064580	1590.000000	
26.084020	1706.000000	
26.103480	1924.000000	
26.122920	2034.000000	
26.142380	2305.000000	
26.161830	2295.000000	
26.181280	2279.000000	
26.200730	1910.000000	
26.220170	1730.000000	
26.239630	1536.000000	
26.259080	1387.000000	
26.278530	1071.000000	
26.297980	1011.000000	
26.317430	1078.000000	
26.336880	1018.000000	
26.356330	1021.000000	
26.375780	1066.000000	
26.395230	997.000000	
26.414680	1022.000000	
26.434130	1027.000000	
26.453580	1039.000000	
26.473030	1004.000000	
26.492480	1001.000000	
26.511930	1001.000000	
26.531380	1033.000000	
26.550830	1067.000000	
26.570280	1023.000000	
26.589730	1040.000000	
26.609180	1011.000000	
26.628630	1024.000000	
26.648080	1049.000000	
26.667530	1020.000000	
26.686980	1016.000000	
26.706430	1007.000000	
26.725880	1025.000000	
26.745330	982.000000	
26.764780	1038.000000	
26.784230	1001.000000	
26.803680	994.000000	
26.823130	1059.000000	
26.842580	1005.000000	
26.862030	996.000000	
26.881480	1018.000000	
26.900930	1056.000000	
26.920380	1009.000000	
26.939830	1004.000000	
26.959280	956.000000	
26.978730	996.000000	
26.998180	1020.000000	
27.017630	993.000000	
27.037080	955.000000	
27.056530	1036.000000	
27.075980	1039.000000	
27.095430	1011.000000	
27.114880	1021.000000	
27.134330	977.000000	
27.153780	1050.000000	
27.173230	1036.000000	
27.192680	1040.000000	
27.212130	1054.000000	
27.231580	1134.000000	
27.251030	1170.000000	
27.270480	1090.000000	
27.289930	1148.000000	
27.309380	1165.000000	
27.328830	1196.000000	
27.348280	1152.000000	
27.367730	1020.000000	
27.387180	1006.000000	
27.406630	1048.000000	
27.426080	1013.000000	
27.445530	970.000000	
27.464980	1011.000000	
27.484430	1002.000000	
27.503880	1041.000000	
27.523330	1031.000000	
27.542780	966.000000	
27.562230	1045.000000	
27.581680	982.000000	
27.601130	971.000000	
27.620580	1013.000000	
27.640030	1004.000000	
27.659480	949.000000	
27.678930	1031.000000	
27.698390	997.000000	
27.717830	1003.000000	
27.737280	1028.000000	
27.756730	1020.000000	
27.776180	1024.000000	
27.795640	1090.000000	
27.815080	1012.000000	
27.834540	1031.000000	
27.853980	1050.000000	
27.873440	1012.000000	
27.892890	1023.000000	
27.912340	1064.000000	
27.931790	1028.000000	
27.951240	993.000000	
27.970690	1014.000000	
27.990140	1070.000000	
28.009590	1057.000000	
28.029040	1039.000000	
28.048490	1014.000000	
28.067940	1030.000000	
28.087390	1066.000000	
28.106840	1008.000000	
28.126290	1010.000000	
28.145740	1051.000000	
28.165190	1029.000000	
28.184640	967.000000	
28.204090	993.000000	
28.223540	1009.000000	
28.242990	1088.000000	
28.262440	990.000000	
28.281890	1037.000000	
28.301340	1024.000000	
28.320790	1008.000000	
28.340240	1010.000000	
28.359690	1014.000000	
28.379140	1019.000000	
28.398590	1002.000000	
28.418040	1016.000000	
28.437490	1033.000000	
28.456940	1061.000000	
28.476390	1012.000000	
28.495840	994.000000	
28.515290	1034.000000	
28.534740	1025.000000	
28.554190	1033.000000	
28.573640	1022.000000	
28.593090	1043.000000	
28.612540	1095.000000	
28.631990	1065.000000	
28.651440	1051.000000	
28.670890	1054.000000	
28.690340	1069.000000	
28.709790	1028.000000	
28.729240	1009.000000	
28.748690	995.000000	
28.768140	1022.000000	
28.787590	966.000000	
28.807040	1065.000000	
28.826490	1004.000000	
28.845940	1013.000000	
28.865390	1031.000000	
28.884840	976.000000	
28.904290	1038.000000	
28.923740	1051.000000	
28.943190	1028.000000	
28.962640	989.000000	
28.982090	1090.000000	
29.001540	1051.000000	
29.020990	1072.000000	
29.040440	1071.000000	
29.059890	1069.000000	
29.079340	1064.000000	
29.098790	1051.000000	
29.118240	1065.000000	
29.137690	1100.000000	
29.157140	1168.000000	
29.176590	1112.000000	
29.196040	1208.000000	
29.215490	1177.000000	
29.234940	1197.000000	
29.254390	1203.000000	
29.273840	1316.000000	
29.293290	1220.000000	
29.312740	1237.000000	
29.332190	1267.000000	
29.351640	1181.000000	
29.371090	1274.000000	
29.390540	1203.000000	
29.409990	1266.000000	
29.429450	1227.000000	
29.448890	1266.000000	
29.468350	1257.000000	
29.487790	1258.000000	
29.507250	1356.000000	
29.526700	1269.000000	
29.546140	1284.000000	
29.565600	1270.000000	
29.585040	1237.000000	
29.604500	1215.000000	
29.623950	1298.000000	
29.643400	1259.000000	
29.662850	1302.000000	
29.682300	1396.000000	
29.701750	1335.000000	
29.721200	1353.000000	
29.740650	1376.000000	
29.760100	1356.000000	
29.779550	1422.000000	
29.799000	1472.000000	
29.818450	1417.000000	
29.837900	1474.000000	
29.857350	1560.000000	
29.876800	1729.000000	
29.896250	1744.000000	
29.915700	1842.000000	
29.935150	2136.000000	
29.954600	2255.000000	
29.974050	2153.000000	
29.993500	2162.000000	
30.012950	2640.000000	
30.032400	2745.000000	
30.051850	3112.000000	
30.071300	3714.000000	
30.090750	3948.000000	
30.110200	4875.000000	
30.129650	6589.000000	
30.149100	9868.000000	
30.168550	13882.000000	
30.188000	19621.000000	
30.207450	26078.000000	
30.226900	30613.000000	
30.246350	37733.000000	
30.265800	44905.000000	
30.285250	51042.000000	
30.304700	38752.000000	
30.324150	26337.000000	
30.343600	21809.000000	
30.363050	21649.000000	
30.382500	14418.000000	
30.401950	6847.000000	
30.421400	3572.000000	
30.440850	2866.000000	
30.460300	2623.000000	
30.479750	2417.000000	
30.499200	2178.000000	
30.518650	2128.000000	
30.538100	2075.000000	
30.557550	1941.000000	
30.577000	1911.000000	
30.596450	1775.000000	
30.615900	1651.000000	
30.635350	1604.000000	
30.654800	1559.000000	
30.674250	1473.000000	
30.693700	1464.000000	
30.713150	1419.000000	
30.732600	1422.000000	
30.752050	1388.000000	
30.771500	1414.000000	
30.790950	1375.000000	
30.810400	1312.000000	
30.829850	1329.000000	
30.849300	1287.000000	
30.868750	1330.000000	
30.888200	1313.000000	
30.907650	1252.000000	
30.927100	1290.000000	
30.946550	1227.000000	
30.966000	1294.000000	
30.985450	1256.000000	
31.004900	1257.000000	
31.024350	1325.000000	
31.043800	1286.000000	
31.063250	1273.000000	
31.082700	1236.000000	
31.102150	1278.000000	
31.121600	1267.000000	
31.141050	1250.000000	
31.160510	1298.000000	
31.179950	1276.000000	
31.199410	1239.000000	
31.218850	1213.000000	
31.238310	1210.000000	
31.257760	1203.000000	
31.277210	1260.000000	
31.296660	1187.000000	
31.316100	1239.000000	
31.335560	1232.000000	
31.355010	1241.000000	
31.374460	1247.000000	
31.393910	1201.000000	
31.413360	1164.000000	
31.432810	1210.000000	
31.452260	1183.000000	
31.471710	1220.000000	
31.491160	1163.000000	
31.510610	1197.000000	
31.530060	1207.000000	
31.549510	1207.000000	
31.568960	1178.000000	
31.588410	1171.000000	
31.607860	1202.000000	
31.627310	1181.000000	
31.646760	1209.000000	
31.666210	1172.000000	
31.685660	1126.000000	
31.705110	1219.000000	
31.724560	1177.000000	
31.744010	1231.000000	
31.763460	1175.000000	
31.782910	1187.000000	
31.802360	1124.000000	
31.821810	1202.000000	
31.841260	1159.000000	
31.860710	1200.000000	
31.880160	1214.000000	
31.899610	1144.000000	
31.919060	1156.000000	
31.938510	1132.000000	
31.957960	1178.000000	
31.977410	1164.000000	
31.996860	1210.000000	
32.016310	1134.000000	
32.035760	1144.000000	
32.055210	1137.000000	
32.074660	1166.000000	
32.094110	1133.000000	
32.113560	1162.000000	
32.133010	1182.000000	
32.152460	1161.000000	
32.171910	1223.000000	
32.191360	1166.000000	
32.210810	1110.000000	
32.230260	1175.000000	
32.249710	1116.000000	
32.269160	1167.000000	
32.288610	1098.000000	
32.308060	1179.000000	
32.327510	1191.000000	
32.346960	1152.000000	
32.366410	1152.000000	
32.385860	1098.000000	
32.405310	1117.000000	
32.424760	1126.000000	
32.444210	1124.000000	
32.463660	1118.000000	
32.483110	1129.000000	
32.502560	1151.000000	
32.522010	1224.000000	
32.541460	1094.000000	
32.560910	1183.000000	
32.580360	1112.000000	
32.599810	1135.000000	
32.619260	1151.000000	
32.638710	1189.000000	
32.658160	1157.000000	
32.677610	1170.000000	
32.697060	1171.000000	
32.716510	1210.000000	
32.735970	1197.000000	
32.755410	1266.000000	
32.774860	1380.000000	
32.794320	1368.000000	
32.813770	1348.000000	
32.833210	1341.000000	
32.852660	1366.000000	
32.872120	1327.000000	
32.891560	1345.000000	
32.911010	1325.000000	
32.930470	1291.000000	
32.949920	1369.000000	
32.969360	1279.000000	
32.988820	1329.000000	
33.008270	1319.000000	
33.027720	1352.000000	
33.047160	1357.000000	
33.066620	1389.000000	
33.086070	1373.000000	
33.105510	1360.000000	
33.124970	1327.000000	
33.144420	1315.000000	
33.163870	1285.000000	
33.183320	1336.000000	
33.202770	1384.000000	
33.222220	1356.000000	
33.241670	1349.000000	
33.261120	1432.000000	
33.280570	1283.000000	
33.300020	1322.000000	
33.319470	1358.000000	
33.338920	1378.000000	
33.358370	1388.000000	
33.377820	1348.000000	
33.397270	1432.000000	
33.416720	1459.000000	
33.436170	1453.000000	
33.455620	1427.000000	
33.475070	1584.000000	
33.494520	1569.000000	
33.513970	1621.000000	
33.533420	1749.000000	
33.552870	1927.000000	
33.572320	2060.000000	
33.591770	2182.000000	
33.611220	2186.000000	
33.630670	2348.000000	
33.650120	2484.000000	
33.669570	2810.000000	
33.689020	3024.000000	
33.708470	3487.000000	
33.727920	4069.000000	
33.747370	4850.000000	
33.766820	6256.000000	
33.786270	8653.000000	
33.805720	10725.000000	
33.825170	13592.000000	
33.844620	19419.000000	
33.864070	26980.000000	
33.883520	34667.000000	
33.902970	43326.000000	
33.922420	52600.000000	
33.941870	59573.000000	
33.961320	53785.000000	
33.980770	32421.000000	
34.000220	25903.000000	
34.019670	26882.000000	
34.039120	25733.000000	
34.058570	14988.000000	
34.078020	5956.000000	
34.097470	3620.000000	
34.116920	2931.000000	
34.136370	2615.000000	
34.155820	2319.000000	
34.175270	2122.000000	
34.194720	1970.000000	
34.214170	1917.000000	
34.233620	1827.000000	
34.253070	1747.000000	
34.272520	1610.000000	
34.291970	1471.000000	
34.311420	1535.000000	
34.330880	1471.000000	
34.350320	1426.000000	
34.369770	1387.000000	
34.389230	1335.000000	
34.408670	1298.000000	
34.428120	1351.000000	
34.447570	1320.000000	
34.467030	1316.000000	
34.486470	1328.000000	
34.505920	1329.000000	
34.525380	1342.000000	
34.544830	1277.000000	
34.564270	1318.000000	
34.583720	1229.000000	
34.603180	1274.000000	
34.622620	1266.000000	
34.642070	1255.000000	
34.661530	1323.000000	
34.680980	1228.000000	
34.700420	1235.000000	
34.719880	1194.000000	
34.739330	1283.000000	
34.758780	1196.000000	
34.778220	1177.000000	
34.797680	1187.000000	
34.817130	1209.000000	
34.836580	1168.000000	
34.856030	1182.000000	
34.875480	1257.000000	
34.894930	1169.000000	
34.914380	1141.000000	
34.933830	1130.000000	
34.953280	1148.000000	
34.972730	1187.000000	
34.992180	1235.000000	
35.011630	1212.000000	
35.031080	1192.000000	
35.050530	1176.000000	
35.069980	1109.000000	
35.089430	1162.000000	
35.108880	1132.000000	
35.128330	1102.000000	
35.147780	1139.000000	
35.167230	1126.000000	
35.186680	1075.000000	
35.206130	1142.000000	
35.225580	1126.000000	
35.245030	1149.000000	
35.264480	1104.000000	
35.283930	1131.000000	
35.303380	1117.000000	
35.322830	1065.000000	
35.342280	1074.000000	
35.361730	1123.000000	
35.381180	1165.000000	
35.400630	1141.000000	
35.420080	1146.000000	
35.439530	1097.000000	
35.458980	1184.000000	
35.478430	1124.000000	
35.497880	1048.000000	
35.517330	1152.000000	
35.536780	1163.000000	
35.556230	1123.000000	
35.575680	1066.000000	
35.595130	1084.000000	
35.614580	1086.000000	
35.634030	1127.000000	
35.653480	1070.000000	
35.672930	1050.000000	
35.692380	1085.000000	
35.711830	1114.000000	
35.731280	1022.000000	
35.750730	999.000000	
35.770180	1071.000000	
35.789630	1020.000000	
35.809080	998.000000	
35.828530	1020.000000	
35.847980	1089.000000	
35.867430	1127.000000	
35.886880	1062.000000	
35.906330	1025.000000	
35.925780	1103.000000	
35.945230	1109.000000	
35.964680	1073.000000	
35.984130	1137.000000	
36.003580	1122.000000	
36.023030	1074.000000	
36.042480	1112.000000	
36.061940	1166.000000	
36.081380	1096.000000	
36.100830	1100.000000	
36.120290	1036.000000	
36.139740	1071.000000	
36.159180	1052.000000	
36.178630	1103.000000	
36.198090	1113.000000	
36.217530	1105.000000	
36.236980	1194.000000	
36.256440	1114.000000	
36.275890	1070.000000	
36.295330	1160.000000	
36.314790	1106.000000	
36.334240	1051.000000	
36.353690	1111.000000	
36.373130	1106.000000	
36.392590	1065.000000	
36.412040	1112.000000	
36.431480	1105.000000	
36.450940	1120.000000	
36.470390	1064.000000	
36.489840	1040.000000	
36.509280	1078.000000	
36.528740	1125.000000	
36.548190	1046.000000	
36.567640	1121.000000	
36.587090	1118.000000	
36.606540	1122.000000	
36.625990	1028.000000	
36.645440	1008.000000	
36.664890	1078.000000	
36.684340	1056.000000	
36.703790	1110.000000	
36.723240	1122.000000	
36.742690	1114.000000	
36.762140	1121.000000	
36.781590	1095.000000	
36.801040	1164.000000	
36.820490	1165.000000	
36.839940	1104.000000	
36.859390	1223.000000	
36.878840	1209.000000	
36.898290	1215.000000	
36.917740	1311.000000	
36.937190	1240.000000	
36.956640	1313.000000	
36.976090	1376.000000	
36.995540	1416.000000	
37.014990	1566.000000	
37.034440	1659.000000	
37.053890	1843.000000	
37.073340	1969.000000	
37.092790	2290.000000	
37.112240	2739.000000	
37.131690	3678.000000	
37.151140	4934.000000	
37.170590	6095.000000	
37.190040	7532.000000	
37.209490	9808.000000	
37.228940	12498.000000	
37.248390	14627.000000	
37.267840	16744.000000	
37.287290	19453.000000	
37.306740	16511.000000	
37.326190	9933.000000	
37.345640	8348.000000	
37.365090	8225.000000	
37.384540	9197.000000	
37.403990	6745.000000	
37.423440	3148.000000	
37.442890	2010.000000	
37.462340	1583.000000	
37.481790	1502.000000	
37.501240	1410.000000	
37.520690	1334.000000	
37.540140	1244.000000	
37.559590	1259.000000	
37.579040	1218.000000	
37.598490	1171.000000	
37.617940	1136.000000	
37.637390	1114.000000	
37.656850	1023.000000	
37.676290	1076.000000	
37.695740	1086.000000	
37.715190	1070.000000	
37.734640	1110.000000	
37.754090	1114.000000	
37.773540	1071.000000	
37.793000	1081.000000	
37.812440	1108.000000	
37.831890	1042.000000	
37.851350	1037.000000	
37.870800	1058.000000	
37.890240	1026.000000	
37.909690	993.000000	
37.929150	1038.000000	
37.948590	1072.000000	
37.968040	1013.000000	
37.987500	1025.000000	
38.006950	987.000000	
38.026390	1022.000000	
38.045850	1051.000000	
38.065300	1002.000000	
38.084750	1058.000000	
38.104190	1135.000000	
38.123650	1060.000000	
38.143100	1033.000000	
38.162550	1023.000000	
38.182000	1046.000000	
38.201450	1072.000000	
38.220900	1011.000000	
38.240350	1036.000000	
38.259800	1031.000000	
38.279250	1059.000000	
38.298700	946.000000	
38.318150	1037.000000	
38.337600	996.000000	
38.357050	974.000000	
38.376500	980.000000	
38.395950	1023.000000	
38.415400	1052.000000	
38.434850	1037.000000	
38.454300	1042.000000	
38.473750	1023.000000	
38.493200	1005.000000	
38.512650	986.000000	
38.532100	978.000000	
38.551550	971.000000	
38.571000	963.000000	
38.590450	1049.000000	
38.609900	1057.000000	
38.629350	1068.000000	
38.648800	1027.000000	
38.668250	996.000000	
38.687700	1012.000000	
38.707150	982.000000	
38.726600	1061.000000	
38.746050	992.000000	
38.765500	1056.000000	
38.784950	1006.000000	
38.804400	982.000000	
38.823850	1016.000000	
38.843300	1032.000000	
38.862750	1023.000000	
38.882200	999.000000	
38.901650	1043.000000	
38.921100	1097.000000	
38.940550	1131.000000	
38.960000	1003.000000	
38.979450	1021.000000	
38.998900	1002.000000	
39.018350	1016.000000	
39.037800	1002.000000	
39.057250	963.000000	
39.076700	939.000000	
39.096150	988.000000	
39.115600	987.000000	
39.135050	968.000000	
39.154500	993.000000	
39.173950	956.000000	
39.193400	978.000000	
39.212850	1005.000000	
39.232300	969.000000	
39.251750	987.000000	
39.271200	946.000000	
39.290650	1014.000000	
39.310100	994.000000	
39.329550	1002.000000	
39.349000	961.000000	
39.368450	947.000000	
39.387910	915.000000	
39.407350	1012.000000	
39.426800	1012.000000	
39.446250	962.000000	
39.465710	931.000000	
39.485150	928.000000	
39.504600	948.000000	
39.524060	1012.000000	
39.543500	936.000000	
39.562950	1014.000000	
39.582410	967.000000	
39.601860	994.000000	
39.621300	943.000000	
39.640750	1018.000000	
39.660210	969.000000	
39.679660	936.000000	
39.699100	988.000000	
39.718560	943.000000	
39.738010	963.000000	
39.757450	1038.000000	
39.776910	996.000000	
39.796360	976.000000	
39.815810	994.000000	
39.835250	927.000000	
39.854710	1003.000000	
39.874160	978.000000	
39.893610	981.000000	
39.913060	978.000000	
39.932510	944.000000	
39.951960	973.000000	
39.971410	960.000000	
39.990860	951.000000	
40.010310	943.000000	
40.029760	972.000000	
40.049210	1022.000000	
40.068660	949.000000	
40.088110	937.000000	
40.107560	951.000000	
40.127010	961.000000	
40.146460	992.000000	
40.165910	968.000000	
40.185360	972.000000	
40.204810	970.000000	
40.224260	934.000000	
40.243710	982.000000	
40.263160	984.000000	
40.282610	962.000000	
40.302060	984.000000	
40.321510	938.000000	
40.340960	1015.000000	
40.360410	973.000000	
40.379860	939.000000	
40.399310	949.000000	
40.418760	941.000000	
40.438210	1022.000000	
40.457660	1059.000000	
40.477110	949.000000	
40.496560	963.000000	
40.516010	992.000000	
40.535460	919.000000	
40.554910	997.000000	
40.574360	972.000000	
40.593810	985.000000	
40.613260	926.000000	
40.632710	973.000000	
40.652160	994.000000	
40.671610	998.000000	
40.691060	938.000000	
40.710510	974.000000	
40.729960	981.000000	
40.749410	996.000000	
40.768860	984.000000	
40.788310	992.000000	
40.807760	909.000000	
40.827210	969.000000	
40.846660	937.000000	
40.866110	948.000000	
40.885560	958.000000	
40.905010	997.000000	
40.924460	985.000000	
40.943910	990.000000	
40.963360	958.000000	
40.982810	966.000000	
41.002260	1025.000000	
41.021710	945.000000	
41.041160	929.000000	
41.060610	999.000000	
41.080060	971.000000	
41.099510	995.000000	
41.118970	974.000000	
41.138410	951.000000	
41.157860	942.000000	
41.177310	909.000000	
41.196770	969.000000	
41.216210	965.000000	
41.235660	915.000000	
41.255120	992.000000	
41.274560	1017.000000	
41.294010	1050.000000	
41.313470	990.000000	
41.332920	1040.000000	
41.352360	1013.000000	
41.371810	1070.000000	
41.391270	1065.000000	
41.410720	1045.000000	
41.430160	1008.000000	
41.449620	1050.000000	
41.469070	1029.000000	
41.488520	1000.000000	
41.507970	988.000000	
41.527420	991.000000	
41.546870	1032.000000	
41.566310	1013.000000	
41.585770	930.000000	
41.605220	993.000000	
41.624670	1001.000000	
41.644120	987.000000	
41.663570	1037.000000	
41.683020	999.000000	
41.702470	1010.000000	
41.721920	1040.000000	
41.741370	985.000000	
41.760820	1030.000000	
41.780270	1112.000000	
41.799720	1066.000000	
41.819170	1095.000000	
41.838620	984.000000	
41.858070	1058.000000	
41.877520	1055.000000	
41.896970	1059.000000	
41.916420	1014.000000	
41.935870	1097.000000	
41.955320	1074.000000	
41.974770	1047.000000	
41.994220	1055.000000	
42.013670	1099.000000	
42.033120	1022.000000	
42.052570	1030.000000	
42.072020	1136.000000	
42.091470	1074.000000	
42.110920	1095.000000	
42.130370	1115.000000	
42.149820	1116.000000	
42.169270	1095.000000	
42.188720	1066.000000	
42.208170	1059.000000	
42.227620	1163.000000	
42.247070	1062.000000	
42.266520	1048.000000	
42.285970	1103.000000	
42.305420	1061.000000	
42.324870	997.000000	
42.344320	1077.000000	
42.363770	1081.000000	
42.383220	1114.000000	
42.402670	1139.000000	
42.422120	1130.000000	
42.441570	1175.000000	
42.461020	1153.000000	
42.480470	1091.000000	
42.499920	1096.000000	
42.519370	1149.000000	
42.538820	1093.000000	
42.558270	1211.000000	
42.577720	1136.000000	
42.597170	1181.000000	
42.616620	1196.000000	
42.636070	1198.000000	
42.655520	1141.000000	
42.674970	1170.000000	
42.694420	1143.000000	
42.713870	1200.000000	
42.733320	1192.000000	
42.752770	1184.000000	
42.772220	1202.000000	
42.791670	1165.000000	
42.811120	1138.000000	
42.830570	1224.000000	
42.850030	1273.000000	
42.869470	1220.000000	
42.888920	1375.000000	
42.908370	1356.000000	
42.927830	1452.000000	
42.947270	1467.000000	
42.966720	1591.000000	
42.986180	1660.000000	
43.005630	1700.000000	
43.025070	1788.000000	
43.044530	1997.000000	
43.063980	2148.000000	
43.083420	2455.000000	
43.102870	2705.000000	
43.122330	3178.000000	
43.141780	3986.000000	
43.161220	5103.000000	
43.180680	7083.000000	
43.200130	9553.000000	
43.219580	13159.000000	
43.239030	17634.000000	
43.258480	22597.000000	
43.277930	26672.000000	
43.297380	25364.000000	
43.316830	18145.000000	
43.336280	11778.000000	
43.355730	11116.000000	
43.375180	12589.000000	
43.394630	13399.000000	
43.414080	11925.000000	
43.433530	7044.000000	
43.452980	3595.000000	
43.472430	2393.000000	
43.491880	1974.000000	
43.511330	1775.000000	
43.530780	1747.000000	
43.550230	1564.000000	
43.569680	1488.000000	
43.589130	1526.000000	
43.608580	1442.000000	
43.628030	1348.000000	
43.647480	1399.000000	
43.666930	1280.000000	
43.686380	1309.000000	
43.705830	1274.000000	
43.725280	1286.000000	
43.744730	1290.000000	
43.764180	1294.000000	
43.783630	1286.000000	
43.803080	1244.000000	
43.822530	1290.000000	
43.841980	1330.000000	
43.861430	1291.000000	
43.880880	1238.000000	
43.900330	1208.000000	
43.919780	1187.000000	
43.939230	1161.000000	
43.958680	1180.000000	
43.978130	1161.000000	
43.997580	1132.000000	
44.017030	1189.000000	
44.036480	1222.000000	
44.055930	1200.000000	
44.075380	1107.000000	
44.094830	1150.000000	
44.114280	1124.000000	
44.133730	1193.000000	
44.153180	1148.000000	
44.172630	1174.000000	
44.192080	1149.000000	
44.211530	1123.000000	
44.230980	1187.000000	
44.250430	1115.000000	
44.269880	1163.000000	
44.289330	1131.000000	
44.308780	1184.000000	
44.328230	1148.000000	
44.347680	1179.000000	
44.367130	1191.000000	
44.386580	1152.000000	
44.406030	1229.000000	
44.425480	1215.000000	
44.444930	1214.000000	
44.464380	1214.000000	
44.483830	1174.000000	
44.503280	1158.000000	
44.522740	1178.000000	
44.542180	1231.000000	
44.561630	1171.000000	
44.581090	1166.000000	
44.600530	1170.000000	
44.619980	1152.000000	
44.639430	1231.000000	
44.658890	1153.000000	
44.678330	1166.000000	
44.697780	1305.000000	
44.717240	1188.000000	
44.736690	1178.000000	
44.756130	1172.000000	
44.775590	1269.000000	
44.795040	1200.000000	
44.814490	1186.000000	
44.833930	1206.000000	
44.853390	1168.000000	
44.872840	1210.000000	
44.892280	1209.000000	
44.911740	1230.000000	
44.931190	1189.000000	
44.950640	1214.000000	
44.970090	1245.000000	
44.989540	1246.000000	
45.008990	1231.000000	
45.028440	1254.000000	
45.047890	1164.000000	
45.067340	1218.000000	
45.086790	1227.000000	
45.106240	1163.000000	
45.125690	1205.000000	
45.145140	1182.000000	
45.164590	1231.000000	
45.184040	1237.000000	
45.203490	1261.000000	
45.222940	1169.000000	
45.242390	1229.000000	
45.261840	1198.000000	
45.281290	1166.000000	
45.300740	1189.000000	
45.320190	1186.000000	
45.339640	1225.000000	
45.359090	1280.000000	
45.378540	1280.000000	
45.397990	1240.000000	
45.417440	1263.000000	
45.436890	1229.000000	
45.456340	1220.000000	
45.475790	1335.000000	
45.495240	1293.000000	
45.514690	1242.000000	
45.534140	1225.000000	
45.553590	1316.000000	
45.573040	1323.000000	
45.592490	1307.000000	
45.611940	1304.000000	
45.631390	1327.000000	
45.650840	1452.000000	
45.670290	1474.000000	
45.689740	1511.000000	
45.709190	1487.000000	
45.728640	1677.000000	
45.748090	1734.000000	
45.767540	1749.000000	
45.786990	1956.000000	
45.806440	2081.000000	
45.825890	2245.000000	
45.845340	2425.000000	
45.864790	2814.000000	
45.884240	3513.000000	
45.903690	4131.000000	
45.923140	5622.000000	
45.942590	7799.000000	
45.962040	10422.000000	
45.981490	13011.000000	
46.000940	16427.000000	
46.020390	19409.000000	
46.039840	23335.000000	
46.059290	23651.000000	
46.078740	18211.000000	
46.098190	10974.000000	
46.117640	9852.000000	
46.137090	10446.000000	
46.156540	11783.000000	
46.175990	11876.000000	
46.195440	8756.000000	
46.214890	4558.000000	
46.234340	2626.000000	
46.253800	2066.000000	
46.273240	1779.000000	
46.292690	1712.000000	
46.312150	1663.000000	
46.331600	1469.000000	
46.351040	1500.000000	
46.370490	1436.000000	
46.389950	1371.000000	
46.409390	1361.000000	
46.428840	1274.000000	
46.448300	1266.000000	
46.467750	1257.000000	
46.487190	1231.000000	
46.506650	1275.000000	
46.526100	1237.000000	
46.545550	1175.000000	
46.564990	1151.000000	
46.584450	1255.000000	
46.603900	1208.000000	
46.623340	1230.000000	
46.642800	1148.000000	
46.662250	1130.000000	
46.681700	1173.000000	
46.701150	1140.000000	
46.720600	1152.000000	
46.740050	1149.000000	
46.759500	1139.000000	
46.778950	1190.000000	
46.798400	1116.000000	
46.817850	1158.000000	
46.837300	1197.000000	
46.856750	1127.000000	
46.876200	1119.000000	
46.895650	1139.000000	
46.915100	1086.000000	
46.934550	1129.000000	
46.954000	1088.000000	
46.973450	1108.000000	
46.992900	1138.000000	
47.012350	1089.000000	
47.031800	1129.000000	
47.051250	1158.000000	
47.070700	1112.000000	
47.090150	1162.000000	
47.109600	1064.000000	
47.129050	1115.000000	
47.148500	1120.000000	
47.167950	1118.000000	
47.187400	1099.000000	
47.206850	1049.000000	
47.226300	1052.000000	
47.245750	1075.000000	
47.265200	1024.000000	
47.284650	1126.000000	
47.304100	1108.000000	
47.323550	1095.000000	
47.343000	1035.000000	
47.362450	1074.000000	
47.381900	1073.000000	
47.401350	1073.000000	
47.420800	1103.000000	
47.440250	1007.000000	
47.459700	1090.000000	
47.479150	1056.000000	
47.498600	1021.000000	
47.518050	1067.000000	
47.537500	1069.000000	
47.556950	1060.000000	
47.576400	1109.000000	
47.595850	1051.000000	
47.615300	1109.000000	
47.634750	1065.000000	
47.654200	1045.000000	
47.673650	1048.000000	
47.693100	1093.000000	
47.712550	1030.000000	
47.732000	1069.000000	
47.751450	993.000000	
47.770900	1028.000000	
47.790350	1081.000000	
47.809800	1071.000000	
47.829250	1071.000000	
47.848710	1036.000000	
47.868150	1070.000000	
47.887600	998.000000	
47.907050	1053.000000	
47.926500	1011.000000	
47.945950	1066.000000	
47.965400	1078.000000	
47.984860	1035.000000	
48.004300	1021.000000	
48.023750	1042.000000	
48.043210	1090.000000	
48.062660	1103.000000	
48.082100	1071.000000	
48.101550	1101.000000	
48.121010	1019.000000	
48.140460	1043.000000	
48.159900	1041.000000	
48.179360	993.000000	
48.198810	1052.000000	
48.218250	1097.000000	
48.237710	986.000000	
48.257160	1000.000000	
48.276610	1054.000000	
48.296050	976.000000	
48.315510	1115.000000	
48.334960	1141.000000	
48.354410	1059.000000	
48.373860	1177.000000	
48.393310	1146.000000	
48.412760	1171.000000	
48.432210	1229.000000	
48.451660	1262.000000	
48.471110	1280.000000	
48.490560	1326.000000	
48.510010	1237.000000	
48.529460	1484.000000	
48.548910	1742.000000	
48.568360	2094.000000	
48.587810	2712.000000	
48.607260	3360.000000	
48.626710	4080.000000	
48.646160	4849.000000	
48.665610	5493.000000	
48.685060	6428.000000	
48.704510	5860.000000	
48.723960	3740.000000	
48.743410	2862.000000	
48.762860	2923.000000	
48.782310	3150.000000	
48.801760	3542.000000	
48.821210	3619.000000	
48.840660	2736.000000	
48.860110	1717.000000	
48.879560	1293.000000	
48.899010	1185.000000	
48.918460	1084.000000	
48.937910	1113.000000	
48.957360	1064.000000	
48.976810	1066.000000	
48.996260	1039.000000	
49.015710	1118.000000	
49.035160	1063.000000	
49.054610	1022.000000	
49.074060	1004.000000	
49.093510	1018.000000	
49.112960	1035.000000	
49.132410	1064.000000	
49.151860	986.000000	
49.171310	1038.000000	
49.190760	1046.000000	
49.210210	978.000000	
49.229660	957.000000	
49.249110	993.000000	
49.268560	975.000000	
49.288010	1026.000000	
49.307460	968.000000	
49.326910	998.000000	
49.346360	920.000000	
49.365810	985.000000	
49.385260	954.000000	
49.404710	1010.000000	
49.424160	976.000000	
49.443610	927.000000	
49.463060	942.000000	
49.482510	973.000000	
49.501960	982.000000	
49.521410	967.000000	
49.540860	977.000000	
49.560310	970.000000	
49.579770	1005.000000	
49.599210	951.000000	
49.618660	918.000000	
49.638110	978.000000	
49.657570	1016.000000	
49.677010	974.000000	
49.696460	914.000000	
49.715920	923.000000	
49.735360	975.000000	
49.754810	996.000000	
49.774270	934.000000	
49.793720	958.000000	
49.813160	944.000000	
49.832610	963.000000	
49.852070	945.000000	
49.871520	924.000000	
49.890960	982.000000	
49.910420	943.000000	
49.929870	940.000000	
49.949310	920.000000	
49.968770	930.000000	
49.988220	937.000000	
50.007670	952.000000	
50.027110	926.000000	
50.046570	931.000000	
50.066020	923.000000	
50.085470	921.000000	
50.104920	959.000000	
50.124370	923.000000	
50.143820	939.000000	
50.163270	960.000000	
50.182720	965.000000	
50.202170	937.000000	
50.221620	972.000000	
50.241070	892.000000	
50.260520	892.000000	
50.279970	961.000000	
50.299420	901.000000	
50.318870	911.000000	
50.338320	908.000000	
50.357770	913.000000	
50.377220	906.000000	
50.396670	913.000000	
50.416120	916.000000	
50.435570	904.000000	
50.455020	903.000000	
50.474470	950.000000	
50.493920	900.000000	
50.513370	939.000000	
50.532820	955.000000	
50.552270	975.000000	
50.571720	894.000000	
50.591170	935.000000	
50.610620	902.000000	
50.630070	903.000000	
50.649520	942.000000	
50.668970	933.000000	
50.688420	951.000000	
50.707870	882.000000	
50.727320	944.000000	
50.746770	888.000000	
50.766220	899.000000	
50.785670	864.000000	
50.805120	927.000000	
50.824570	945.000000	
50.844020	942.000000	
50.863470	925.000000	
50.882920	889.000000	
50.902370	944.000000	
50.921820	957.000000	
50.941270	897.000000	
50.960720	925.000000	
50.980170	951.000000	
50.999620	923.000000	
51.019070	946.000000	
51.038520	1000.000000	
51.057970	951.000000	
51.077420	922.000000	
51.096870	1016.000000	
51.116320	1062.000000	
51.135770	1063.000000	
51.155220	1102.000000	
51.174670	1112.000000	
51.194120	1275.000000	
51.213570	1476.000000	
51.233020	1458.000000	
51.252470	1196.000000	
51.271920	1078.000000	
51.291370	1006.000000	
51.310830	1038.000000	
51.330270	1126.000000	
51.349720	1170.000000	
51.369170	1135.000000	
51.388630	1087.000000	
51.408070	1011.000000	
51.427520	928.000000	
51.446980	933.000000	
51.466430	832.000000	
51.485870	874.000000	
51.505330	867.000000	
51.524780	884.000000	
51.544220	881.000000	
51.563670	884.000000	
51.583130	904.000000	
51.602580	898.000000	
51.622020	929.000000	
51.641480	937.000000	
51.660930	907.000000	
51.680380	904.000000	
51.699830	899.000000	
51.719280	886.000000	
51.738730	933.000000	
51.758170	928.000000	
51.777630	954.000000	
51.797080	907.000000	
51.816530	958.000000	
51.835980	923.000000	
51.855430	917.000000	
51.874880	879.000000	
51.894330	901.000000	
51.913780	885.000000	
51.933230	885.000000	
51.952680	923.000000	
51.972130	886.000000	
51.991580	887.000000	
52.011030	893.000000	
52.030480	873.000000	
52.049930	901.000000	
52.069380	866.000000	
52.088830	887.000000	
52.108280	902.000000	
52.127730	905.000000	
52.147180	850.000000	
52.166630	870.000000	
52.186080	856.000000	
52.205530	921.000000	
52.224980	898.000000	
52.244430	906.000000	
52.263880	868.000000	
52.283330	936.000000	
52.302780	947.000000	
52.322230	880.000000	
52.341680	859.000000	
52.361130	893.000000	
52.380580	835.000000	
52.400030	858.000000	
52.419480	818.000000	
52.438930	862.000000	
52.458380	936.000000	
52.477830	922.000000	
52.497280	938.000000	
52.516730	860.000000	
52.536180	913.000000	
52.555630	888.000000	
52.575080	909.000000	
52.594530	928.000000	
52.613980	932.000000	
52.633430	922.000000	
52.652880	902.000000	
52.672330	832.000000	
52.691780	927.000000	
52.711230	880.000000	
52.730680	948.000000	
52.750130	886.000000	
52.769580	879.000000	
52.789030	866.000000	
52.808480	860.000000	
52.827930	865.000000	
52.847380	868.000000	
52.866830	908.000000	
52.886280	889.000000	
52.905740	908.000000	
52.925180	934.000000	
52.944630	908.000000	
52.964080	945.000000	
52.983540	856.000000	
53.002980	851.000000	
53.022430	890.000000	
53.041890	883.000000	
53.061330	917.000000	
53.080780	889.000000	
53.100230	901.000000	
53.119690	891.000000	
53.139130	890.000000	
53.158580	854.000000	
53.178040	949.000000	
53.197490	873.000000	
53.216930	911.000000	
53.236390	962.000000	
53.255840	926.000000	
53.275280	981.000000	
53.294730	988.000000	
53.314190	986.000000	
53.333640	989.000000	
53.353080	1037.000000	
53.372540	972.000000	
53.391990	1040.000000	
53.411440	1077.000000	
53.430890	1009.000000	
53.450340	1135.000000	
53.469790	1141.000000	
53.489240	1292.000000	
53.508690	1399.000000	
53.528140	1677.000000	
53.547590	2127.000000	
53.567040	2522.000000	
53.586490	3234.000000	
53.605940	4015.000000	
53.625390	4593.000000	
53.644840	5678.000000	
53.664290	6039.000000	
53.683740	5072.000000	
53.703190	3101.000000	
53.722640	2468.000000	
53.742090	2499.000000	
53.761540	2781.000000	
53.780990	3047.000000	
53.800440	3334.000000	
53.819890	3133.000000	
53.839340	2179.000000	
53.858790	1398.000000	
53.878240	1175.000000	
53.897690	1062.000000	
53.917140	1097.000000	
53.936590	1009.000000	
53.956040	1014.000000	
53.975490	969.000000	
53.994940	961.000000	
54.014390	996.000000	
54.033840	949.000000	
54.053290	953.000000	
54.072740	917.000000	
54.092190	903.000000	
54.111640	867.000000	
54.131090	965.000000	
54.150540	890.000000	
54.169990	924.000000	
54.189440	991.000000	
54.208890	876.000000	
54.228340	900.000000	
54.247790	880.000000	
54.267240	895.000000	
54.286690	899.000000	
54.306140	865.000000	
54.325590	911.000000	
54.345040	926.000000	
54.364490	919.000000	
54.383940	897.000000	
54.403390	837.000000	
54.422840	883.000000	
54.442290	942.000000	
54.461740	891.000000	
54.481190	826.000000	
54.500640	876.000000	
54.520090	880.000000	
54.539540	909.000000	
54.558990	896.000000	
54.578440	888.000000	
54.597890	885.000000	
54.617340	880.000000	
54.636800	935.000000	
54.656240	892.000000	
54.675690	892.000000	
54.695140	879.000000	
54.714600	869.000000	
54.734040	914.000000	
54.753490	922.000000	
54.772950	875.000000	
54.792400	920.000000	
54.811840	920.000000	
54.831300	855.000000	
54.850750	864.000000	
54.870190	842.000000	
54.889640	987.000000	
54.909100	862.000000	
54.928550	888.000000	
54.947990	884.000000	
54.967450	867.000000	
54.986900	901.000000	
55.006350	870.000000	
