;content of δ-FAPbI3.uxd - (Diffrac Plus V4 file)
_FILEVERSION = 3
_SAMPLE = δ-FAPbI3
_+SAMPLE
_USER = Lab Manager
_GONIOMETER_CODE = 21
_STAGE_CODE = 0
; Goniometer : D8 theta/theta, stage : Standard
_SAMPLE_CHANGER_CODE = 0
_ATTACHMENTS_CODE = 0
_GONIOMETER_RADIUS = 250
_FIXED_DIVSLIT = 1
_MONOCHROMATOR = 0
; Incident beam monochromator : None
_BETA_FILTER = N
_FIXED_ANTISLIT = 18
_ANALYZER_CODE = 0
; Received beam analyzer : None
_DATEMEASURED = 28-Jul-2026 08:52:16
_RUNTIME = 1637.335
_WL_UNIT = A
_WL1 = 1.5406
_WL2 = 1.54439
_WL3 = 1.39222
_WLRATIO = 0.5
_ANODE = Cu
_V4_INF_USER = Lab Manager
_V4_INF_SAMPLEID = δ-FAPbI3
_V4_INF_CREATOR = DatToUxdConverter
_V4_INF_CREATOR_VERSION = 1.0.0.0

; Data for range 1
_DRIVE = COUPLED
_STEPTIME = 1
_STEPSIZE = 0.019449999999999967
_STEPMODE = C
_START = 5.0001
_THETA = 2.50005
_2THETA = 5.0001
_DETECTORSLIT = out
_TIMESTARTED = 0
_KV = 40
_MA = 40
_RANGE_WL = 1.5406
_3DPLANE = 0
_V4_PSD2THETA = 9999
_V4_PSDCHANNEL1 = 0
_V4_PSDAPERTURE = 2.745898
_V4_PSDTYPE = 5
_V4_PSDFIXED = 0
_V4_COUNTERS_MASK = 1
_V4_DRIVES_MASK = 0
_V4_ENCODERS_MASK = 0
_2THETACOUNTS = 1
; 2THETA	Cnt2_D1	
5.000100	24.000000	
5.019550	24.000000	
5.039000	16.000000	
5.058450	27.000000	
5.077900	0.000000	
5.097350	121.000000	
5.116800	142.000000	
5.136250	40.000000	
5.155700	88.000000	
5.175150	0.000000	
5.194600	118.000000	
5.214050	41.000000	
5.233500	0.000000	
5.252950	0.000000	
5.272400	92.000000	
5.291850	0.000000	
5.311300	0.000000	
5.330750	0.000000	
5.350200	0.000000	
5.369650	51.000000	
5.389100	55.000000	
5.408550	95.000000	
5.428000	0.000000	
5.447450	0.000000	
5.466900	0.000000	
5.486350	0.000000	
5.505800	0.000000	
5.525250	177.000000	
5.544700	0.000000	
5.564150	0.000000	
5.583600	7.000000	
5.603050	3.000000	
5.622500	79.000000	
5.641950	71.000000	
5.661400	0.000000	
5.680850	0.000000	
5.700300	0.000000	
5.719750	0.000000	
5.739200	0.000000	
5.758650	0.000000	
5.778100	0.000000	
5.797550	8.000000	
5.817010	0.000000	
5.836450	13.000000	
5.855910	0.000000	
5.875360	35.000000	
5.894810	9.000000	
5.914260	2.000000	
5.933710	17.000000	
5.953160	0.000000	
5.972610	0.000000	
5.992060	0.000000	
6.011510	32.000000	
6.030960	0.000000	
6.050410	0.000000	
6.069860	0.000000	
6.089310	38.000000	
6.108760	0.000000	
6.128210	0.000000	
6.147660	26.000000	
6.167110	29.000000	
6.186560	42.000000	
6.206010	20.000000	
6.225460	36.000000	
6.244910	0.000000	
6.264360	0.000000	
6.283810	4.000000	
6.303260	31.000000	
6.322710	0.000000	
6.342160	126.000000	
6.361610	42.000000	
6.381060	56.000000	
6.400510	16.000000	
6.419960	43.000000	
6.439410	0.000000	
6.458860	0.000000	
6.478310	69.000000	
6.497760	50.000000	
6.517210	22.000000	
6.536660	140.000000	
6.556110	2.000000	
6.575560	61.000000	
6.595010	63.000000	
6.614460	0.000000	
6.633910	0.000000	
6.653360	63.000000	
6.672810	0.000000	
6.692260	39.000000	
6.711710	45.000000	
6.731160	0.000000	
6.750610	55.000000	
6.770060	28.000000	
6.789510	0.000000	
6.808960	109.000000	
6.828410	0.000000	
6.847860	32.000000	
6.867310	14.000000	
6.886760	3.000000	
6.906210	140.000000	
6.925660	0.000000	
6.945110	144.000000	
6.964560	0.000000	
6.984010	105.000000	
7.003460	0.000000	
7.022910	114.000000	
7.042360	35.000000	
7.061810	16.000000	
7.081260	113.000000	
7.100710	92.000000	
7.120160	33.000000	
7.139610	74.000000	
7.159060	0.000000	
7.178510	54.000000	
7.197960	0.000000	
7.217410	0.000000	
7.236860	44.000000	
7.256310	98.000000	
7.275760	0.000000	
7.295210	127.000000	
7.314660	18.000000	
7.334110	108.000000	
7.353560	3.000000	
7.373010	61.000000	
7.392460	9.000000	
7.411910	44.000000	
7.431360	60.000000	
7.450810	118.000000	
7.470260	84.000000	
7.489710	37.000000	
7.509160	112.000000	
7.528610	35.000000	
7.548070	78.000000	
7.567520	58.000000	
7.586970	35.000000	
7.606420	0.000000	
7.625870	141.000000	
7.645320	2.000000	
7.664770	44.000000	
7.684220	49.000000	
7.703670	8.000000	
7.723120	72.000000	
7.742570	37.000000	
7.762020	97.000000	
7.781470	44.000000	
7.800920	88.000000	
7.820370	71.000000	
7.839820	185.000000	
7.859270	55.000000	
7.878720	119.000000	
7.898170	51.000000	
7.917620	29.000000	
7.937070	22.000000	
7.956520	64.000000	
7.975970	113.000000	
7.995420	31.000000	
8.014870	29.000000	
8.034320	210.000000	
8.053770	100.000000	
8.073220	64.000000	
8.092670	0.000000	
8.112120	225.000000	
8.131570	42.000000	
8.151020	84.000000	
8.170470	0.000000	
8.189920	100.000000	
8.209370	126.000000	
8.228820	122.000000	
8.248270	141.000000	
8.267720	133.000000	
8.287170	78.000000	
8.306620	38.000000	
8.326070	87.000000	
8.345520	63.000000	
8.364970	0.000000	
8.384420	189.000000	
8.403870	152.000000	
8.423320	151.000000	
8.442770	21.000000	
8.462220	84.000000	
8.481670	190.000000	
8.501120	34.000000	
8.520570	182.000000	
8.540020	102.000000	
8.559470	14.000000	
8.578920	12.000000	
8.598370	75.000000	
8.617820	128.000000	
8.637270	77.000000	
8.656720	67.000000	
8.676170	88.000000	
8.695620	84.000000	
8.715070	53.000000	
8.734520	14.000000	
8.753970	153.000000	
8.773420	36.000000	
8.792870	140.000000	
8.812320	5.000000	
8.831770	174.000000	
8.851220	40.000000	
8.870670	132.000000	
8.890120	17.000000	
8.909570	164.000000	
8.929020	115.000000	
8.948470	139.000000	
8.967920	85.000000	
8.987370	40.000000	
9.006820	0.000000	
9.026270	146.000000	
9.045720	44.000000	
9.065170	132.000000	
9.084620	35.000000	
9.104070	39.000000	
9.123520	206.000000	
9.142970	8.000000	
9.162430	195.000000	
9.181880	64.000000	
9.201330	60.000000	
9.220770	85.000000	
9.240220	28.000000	
9.259680	148.000000	
9.279130	95.000000	
9.298580	100.000000	
9.318030	12.000000	
9.337480	31.000000	
9.356930	32.000000	
9.376380	83.000000	
9.395830	60.000000	
9.415280	30.000000	
9.434730	108.000000	
9.454180	171.000000	
9.473630	73.000000	
9.493080	157.000000	
9.512530	0.000000	
9.531980	37.000000	
9.551430	110.000000	
9.570880	75.000000	
9.590330	39.000000	
9.609780	130.000000	
9.629230	14.000000	
9.648680	40.000000	
9.668130	0.000000	
9.687580	164.000000	
9.707030	68.000000	
9.726480	0.000000	
9.745930	0.000000	
9.765380	167.000000	
9.784830	171.000000	
9.804280	0.000000	
9.823730	54.000000	
9.843180	0.000000	
9.862630	50.000000	
9.882080	68.000000	
9.901530	0.000000	
9.920980	54.000000	
9.940430	0.000000	
9.959880	59.000000	
9.979330	0.000000	
9.998780	0.000000	
10.018230	33.000000	
10.037680	97.000000	
10.057130	29.000000	
10.076580	2.000000	
10.096030	168.000000	
10.115480	126.000000	
10.134930	43.000000	
10.154380	19.000000	
10.173830	112.000000	
10.193280	32.000000	
10.212730	167.000000	
10.232180	149.000000	
10.251630	112.000000	
10.271080	134.000000	
10.290530	138.000000	
10.309980	65.000000	
10.329430	48.000000	
10.348880	86.000000	
10.368330	20.000000	
10.387780	6.000000	
10.407230	43.000000	
10.426680	66.000000	
10.446130	122.000000	
10.465580	167.000000	
10.485030	184.000000	
10.504480	105.000000	
10.523930	66.000000	
10.543380	169.000000	
10.562830	135.000000	
10.582280	181.000000	
10.601730	47.000000	
10.621180	85.000000	
10.640630	149.000000	
10.660080	70.000000	
10.679530	37.000000	
10.698980	54.000000	
10.718430	111.000000	
10.737880	90.000000	
10.757330	116.000000	
10.776780	138.000000	
10.796230	194.000000	
10.815680	60.000000	
10.835130	34.000000	
10.854580	154.000000	
10.874030	140.000000	
10.893490	145.000000	
10.912940	125.000000	
10.932390	135.000000	
10.951840	114.000000	
10.971290	149.000000	
10.990740	22.000000	
11.010190	171.000000	
11.029640	158.000000	
11.049090	85.000000	
11.068540	173.000000	
11.087990	279.000000	
11.107440	120.000000	
11.126890	213.000000	
11.146340	164.000000	
11.165790	166.000000	
11.185240	251.000000	
11.204690	121.000000	
11.224140	307.000000	
11.243590	333.000000	
11.263040	166.000000	
11.282490	317.000000	
11.301940	322.000000	
11.321390	284.000000	
11.340840	377.000000	
11.360290	428.000000	
11.379740	382.000000	
11.399190	393.000000	
11.418640	534.000000	
11.438090	666.000000	
11.457540	535.000000	
11.476990	727.000000	
11.496440	887.000000	
11.515890	991.000000	
11.535340	1010.000000	
11.554790	1386.000000	
11.574240	1495.000000	
11.593690	1680.000000	
11.613140	2069.000000	
11.632590	2553.000000	
11.652040	2941.000000	
11.671490	3326.000000	
11.690940	4169.000000	
11.710390	4818.000000	
11.729840	6296.000000	
11.749290	8282.000000	
11.768740	11066.000000	
11.788190	14684.000000	
11.807640	18681.000000	
11.827090	15394.000000	
11.846540	6331.000000	
11.865990	1626.000000	
11.885440	629.000000	
11.904890	839.000000	
11.924340	513.000000	
11.943790	468.000000	
11.963240	577.000000	
11.982690	489.000000	
12.002140	360.000000	
12.021590	380.000000	
12.041040	393.000000	
12.060490	349.000000	
12.079940	354.000000	
12.099390	363.000000	
12.118840	364.000000	
12.138290	366.000000	
12.157740	278.000000	
12.177190	298.000000	
12.196640	218.000000	
12.216090	177.000000	
12.235540	359.000000	
12.254990	348.000000	
12.274440	158.000000	
12.293890	296.000000	
12.313340	355.000000	
12.332790	182.000000	
12.352240	255.000000	
12.371690	280.000000	
12.391140	312.000000	
12.410590	195.000000	
12.430040	386.000000	
12.449490	166.000000	
12.468940	97.000000	
12.488390	394.000000	
12.507840	148.000000	
12.527300	113.000000	
12.546740	261.000000	
12.566190	121.000000	
12.585640	130.000000	
12.605090	224.000000	
12.624550	228.000000	
12.644000	14.000000	
12.663450	234.000000	
12.682900	216.000000	
12.702350	76.000000	
12.721800	128.000000	
12.741250	182.000000	
12.760700	197.000000	
12.780150	138.000000	
12.799600	232.000000	
12.819050	159.000000	
12.838500	150.000000	
12.857950	25.000000	
12.877400	119.000000	
12.896850	251.000000	
12.916300	125.000000	
12.935750	26.000000	
12.955200	162.000000	
12.974650	19.000000	
12.994100	115.000000	
13.013550	57.000000	
13.033000	50.000000	
13.052450	80.000000	
13.071900	37.000000	
13.091350	127.000000	
13.110800	0.000000	
13.130250	69.000000	
13.149700	20.000000	
13.169150	69.000000	
13.188600	41.000000	
13.208050	12.000000	
13.227500	16.000000	
13.246950	21.000000	
13.266400	26.000000	
13.285850	29.000000	
13.305300	18.000000	
13.324750	14.000000	
13.344200	0.000000	
13.363650	0.000000	
13.383100	71.000000	
13.402550	6.000000	
13.422000	0.000000	
13.441450	0.000000	
13.460900	0.000000	
13.480350	0.000000	
13.499800	0.000000	
13.519250	0.000000	
13.538700	0.000000	
13.558150	0.000000	
13.577600	0.000000	
13.597050	0.000000	
13.616500	0.000000	
13.635950	0.000000	
13.655400	0.000000	
13.674850	0.000000	
13.694300	0.000000	
13.713750	0.000000	
13.733200	0.000000	
13.752650	0.000000	
13.772100	0.000000	
13.791550	0.000000	
13.811000	0.000000	
13.830450	0.000000	
13.849900	0.000000	
13.869350	0.000000	
13.888800	0.000000	
13.908250	0.000000	
13.927700	0.000000	
13.947150	0.000000	
13.966600	0.000000	
13.986050	0.000000	
14.005500	0.000000	
14.024950	0.000000	
14.044400	0.000000	
14.063850	0.000000	
14.083300	0.000000	
14.102750	0.000000	
14.122200	0.000000	
14.141650	0.000000	
14.161100	0.000000	
14.180550	0.000000	
14.200000	0.000000	
14.219450	0.000000	
14.238900	0.000000	
14.258360	0.000000	
14.277810	0.000000	
14.297260	0.000000	
14.316710	0.000000	
14.336150	0.000000	
14.355610	0.000000	
14.375060	0.000000	
14.394510	0.000000	
14.413960	0.000000	
14.433410	0.000000	
14.452860	0.000000	
14.472310	0.000000	
14.491760	0.000000	
14.511210	0.000000	
14.530660	0.000000	
14.550110	0.000000	
14.569560	0.000000	
14.589010	0.000000	
14.608460	0.000000	
14.627910	0.000000	
14.647360	0.000000	
14.666810	0.000000	
14.686260	0.000000	
14.705710	0.000000	
14.725160	0.000000	
14.744610	0.000000	
14.764060	0.000000	
14.783510	0.000000	
14.802960	0.000000	
14.822410	0.000000	
14.841860	0.000000	
14.861310	0.000000	
14.880760	0.000000	
14.900210	0.000000	
14.919660	0.000000	
14.939110	0.000000	
14.958560	0.000000	
14.978010	0.000000	
14.997460	0.000000	
15.016910	0.000000	
15.036360	0.000000	
15.055810	0.000000	
15.075260	0.000000	
15.094710	0.000000	
15.114160	0.000000	
15.133610	0.000000	
15.153060	0.000000	
15.172510	0.000000	
15.191960	0.000000	
15.211410	0.000000	
15.230860	0.000000	
15.250310	0.000000	
15.269760	0.000000	
15.289210	0.000000	
15.308660	0.000000	
15.328110	0.000000	
15.347560	0.000000	
15.367010	0.000000	
15.386460	0.000000	
15.405910	0.000000	
15.425360	0.000000	
15.444810	0.000000	
15.464260	0.000000	
15.483710	4.000000	
15.503160	0.000000	
15.522610	0.000000	
15.542060	0.000000	
15.561510	0.000000	
15.580960	0.000000	
15.600410	0.000000	
15.619860	0.000000	
15.639310	0.000000	
15.658760	0.000000	
15.678210	0.000000	
15.697660	0.000000	
15.717110	0.000000	
15.736560	0.000000	
15.756010	0.000000	
15.775460	6.000000	
15.794910	0.000000	
15.814360	2.000000	
15.833810	0.000000	
15.853260	0.000000	
15.872710	0.000000	
15.892160	56.000000	
15.911610	27.000000	
15.931060	0.000000	
15.950510	0.000000	
15.969960	63.000000	
15.989420	139.000000	
16.008870	99.000000	
16.028310	53.000000	
16.047770	145.000000	
16.067210	196.000000	
16.086670	275.000000	
16.106120	215.000000	
16.125570	322.000000	
16.145020	535.000000	
16.164470	664.000000	
16.183920	871.000000	
16.203370	1120.000000	
16.222820	1439.000000	
16.242270	2312.000000	
16.261720	2957.000000	
16.281170	3193.000000	
16.300620	2203.000000	
16.320070	1178.000000	
16.339520	621.000000	
16.358970	147.000000	
16.378420	210.000000	
16.397870	192.000000	
16.417320	77.000000	
16.436770	50.000000	
16.456220	70.000000	
16.475670	4.000000	
16.495120	81.000000	
16.514570	86.000000	
16.534020	90.000000	
16.553470	3.000000	
16.572920	11.000000	
16.592370	22.000000	
16.611820	102.000000	
16.631270	32.000000	
16.650720	3.000000	
16.670170	21.000000	
16.689620	42.000000	
16.709070	71.000000	
16.728520	25.000000	
16.747970	13.000000	
16.767420	2.000000	
16.786870	117.000000	
16.806320	84.000000	
16.825770	48.000000	
16.845220	67.000000	
16.864670	0.000000	
16.884120	37.000000	
16.903570	19.000000	
16.923020	7.000000	
16.942470	7.000000	
16.961920	105.000000	
16.981370	139.000000	
17.000820	0.000000	
17.020270	0.000000	
17.039720	10.000000	
17.059170	96.000000	
17.078620	49.000000	
17.098070	3.000000	
17.117520	0.000000	
17.136970	43.000000	
17.156420	54.000000	
17.175870	33.000000	
17.195320	65.000000	
17.214770	0.000000	
17.234220	34.000000	
17.253670	45.000000	
17.273120	14.000000	
17.292570	19.000000	
17.312020	72.000000	
17.331470	39.000000	
17.350920	51.000000	
17.370370	70.000000	
17.389820	34.000000	
17.409270	23.000000	
17.428720	37.000000	
17.448170	46.000000	
17.467620	64.000000	
17.487070	67.000000	
17.506530	8.000000	
17.525970	13.000000	
17.545420	86.000000	
17.564870	30.000000	
17.584320	16.000000	
17.603780	12.000000	
17.623220	5.000000	
17.642680	64.000000	
17.662120	12.000000	
17.681580	6.000000	
17.701030	23.000000	
17.720480	38.000000	
17.739930	79.000000	
17.759380	29.000000	
17.778830	19.000000	
17.798270	29.000000	
17.817730	49.000000	
17.837180	26.000000	
17.856630	0.000000	
17.876080	52.000000	
17.895530	41.000000	
17.914980	14.000000	
17.934430	12.000000	
17.953880	18.000000	
17.973330	59.000000	
17.992780	46.000000	
18.012230	3.000000	
18.031680	51.000000	
18.051130	1.000000	
18.070580	70.000000	
18.090030	51.000000	
18.109480	12.000000	
18.128930	72.000000	
18.148380	26.000000	
18.167830	21.000000	
18.187280	31.000000	
18.206730	41.000000	
18.226180	23.000000	
18.245630	63.000000	
18.265080	38.000000	
18.284530	18.000000	
18.303980	34.000000	
18.323430	56.000000	
18.342880	29.000000	
18.362330	5.000000	
18.381780	13.000000	
18.401230	66.000000	
18.420680	34.000000	
18.440130	61.000000	
18.459580	47.000000	
18.479030	56.000000	
18.498480	2.000000	
18.517930	0.000000	
18.537380	86.000000	
18.556830	72.000000	
18.576280	18.000000	
18.595730	0.000000	
18.615180	44.000000	
18.634630	7.000000	
18.654080	52.000000	
18.673530	15.000000	
18.692980	13.000000	
18.712430	1.000000	
18.731880	38.000000	
18.751330	45.000000	
18.770780	25.000000	
18.790230	25.000000	
18.809680	4.000000	
18.829130	49.000000	
18.848580	34.000000	
18.868030	29.000000	
18.887480	0.000000	
18.906930	39.000000	
18.926380	29.000000	
18.945830	54.000000	
18.965280	12.000000	
18.984730	24.000000	
19.004180	42.000000	
19.023630	55.000000	
19.043080	49.000000	
19.062530	32.000000	
19.081980	70.000000	
19.101430	7.000000	
19.120880	20.000000	
19.140330	0.000000	
19.159780	48.000000	
19.179230	15.000000	
19.198680	32.000000	
19.218130	15.000000	
19.237590	30.000000	
19.257030	40.000000	
19.276490	2.000000	
19.295930	0.000000	
19.315380	76.000000	
19.334840	61.000000	
19.354280	61.000000	
19.373740	12.000000	
19.393180	5.000000	
19.412640	18.000000	
19.432090	43.000000	
19.451540	43.000000	
19.470990	0.000000	
19.490440	44.000000	
19.509890	68.000000	
19.529340	1.000000	
19.548790	11.000000	
19.568240	60.000000	
19.587690	0.000000	
19.607140	17.000000	
19.626590	0.000000	
19.646040	40.000000	
19.665490	8.000000	
19.684940	29.000000	
19.704390	37.000000	
19.723840	21.000000	
19.743290	18.000000	
19.762740	18.000000	
19.782190	61.000000	
19.801640	45.000000	
19.821090	60.000000	
19.840540	36.000000	
19.859990	25.000000	
19.879440	24.000000	
19.898890	0.000000	
19.918340	49.000000	
19.937790	38.000000	
19.957240	23.000000	
19.976690	0.000000	
19.996140	34.000000	
20.015590	70.000000	
20.035040	20.000000	
20.054490	9.000000	
20.073940	5.000000	
20.093390	19.000000	
20.112840	90.000000	
20.132290	71.000000	
20.151740	17.000000	
20.171190	11.000000	
20.190640	60.000000	
20.210090	34.000000	
20.229540	68.000000	
20.248990	76.000000	
20.268440	123.000000	
20.287890	91.000000	
20.307340	136.000000	
20.326790	105.000000	
20.346240	223.000000	
20.365690	296.000000	
20.385140	366.000000	
20.404590	492.000000	
20.424040	598.000000	
20.443490	864.000000	
20.462940	1249.000000	
20.482390	1664.000000	
20.501840	1594.000000	
20.521290	742.000000	
20.540740	367.000000	
20.560190	146.000000	
20.579640	53.000000	
20.599090	35.000000	
20.618540	82.000000	
20.637990	49.000000	
20.657440	65.000000	
20.676890	42.000000	
20.696340	42.000000	
20.715790	35.000000	
20.735240	20.000000	
20.754690	7.000000	
20.774140	37.000000	
20.793590	38.000000	
20.813040	15.000000	
20.832490	18.000000	
20.851940	39.000000	
20.871390	31.000000	
20.890840	53.000000	
20.910290	48.000000	
20.929740	12.000000	
20.949190	24.000000	
20.968650	57.000000	
20.988090	43.000000	
21.007550	30.000000	
21.026990	10.000000	
21.046450	33.000000	
21.065900	36.000000	
21.085350	11.000000	
21.104800	17.000000	
21.124240	15.000000	
21.143700	29.000000	
21.163150	24.000000	
21.182600	103.000000	
21.202050	12.000000	
21.221500	0.000000	
21.240950	8.000000	
21.260400	65.000000	
21.279850	2.000000	
21.299300	8.000000	
21.318750	3.000000	
21.338200	6.000000	
21.357650	55.000000	
21.377100	31.000000	
21.396550	25.000000	
21.416000	50.000000	
21.435450	55.000000	
21.454900	21.000000	
21.474350	0.000000	
21.493800	4.000000	
21.513250	15.000000	
21.532700	16.000000	
21.552150	27.000000	
21.571600	73.000000	
21.591050	0.000000	
21.610500	12.000000	
21.629950	2.000000	
21.649400	57.000000	
21.668850	43.000000	
21.688300	43.000000	
21.707750	33.000000	
21.727200	19.000000	
21.746650	30.000000	
21.766100	29.000000	
21.785550	97.000000	
21.805000	14.000000	
21.824450	2.000000	
21.843900	0.000000	
21.863350	8.000000	
21.882800	6.000000	
21.902250	36.000000	
21.921700	47.000000	
21.941150	32.000000	
21.960600	0.000000	
21.980050	4.000000	
21.999500	7.000000	
22.018950	68.000000	
22.038400	45.000000	
22.057850	63.000000	
22.077300	59.000000	
22.096750	35.000000	
22.116200	9.000000	
22.135650	36.000000	
22.155100	49.000000	
22.174550	50.000000	
22.194000	41.000000	
22.213450	102.000000	
22.232900	20.000000	
22.252350	79.000000	
22.271800	41.000000	
22.291250	149.000000	
22.310700	182.000000	
22.330150	212.000000	
22.349600	282.000000	
22.369050	345.000000	
22.388500	477.000000	
22.407950	668.000000	
22.427400	725.000000	
22.446850	771.000000	
22.466300	790.000000	
22.485750	1110.000000	
22.505200	557.000000	
22.524650	157.000000	
22.544100	16.000000	
22.563550	92.000000	
22.583000	93.000000	
22.602460	67.000000	
22.621900	18.000000	
22.641350	0.000000	
22.660800	44.000000	
22.680250	67.000000	
22.699710	82.000000	
22.719150	21.000000	
22.738610	8.000000	
22.758050	13.000000	
22.777510	11.000000	
22.796960	53.000000	
22.816410	43.000000	
22.835860	35.000000	
22.855310	66.000000	
22.874760	49.000000	
22.894210	13.000000	
22.913660	8.000000	
22.933110	72.000000	
22.952560	45.000000	
22.972010	0.000000	
22.991460	0.000000	
23.010910	10.000000	
23.030360	28.000000	
23.049810	42.000000	
23.069260	70.000000	
23.088710	46.000000	
23.108160	10.000000	
23.127610	9.000000	
23.147060	49.000000	
23.166510	21.000000	
23.185960	31.000000	
23.205410	25.000000	
23.224860	49.000000	
23.244310	36.000000	
23.263760	28.000000	
23.283210	37.000000	
23.302660	41.000000	
23.322110	29.000000	
23.341560	28.000000	
23.361010	49.000000	
23.380460	53.000000	
23.399910	59.000000	
23.419360	32.000000	
23.438810	49.000000	
23.458260	16.000000	
23.477710	23.000000	
23.497160	13.000000	
23.516610	69.000000	
23.536060	46.000000	
23.555510	30.000000	
23.574960	22.000000	
23.594410	4.000000	
23.613860	73.000000	
23.633310	115.000000	
23.652760	114.000000	
23.672210	70.000000	
23.691660	118.000000	
23.711110	92.000000	
23.730560	25.000000	
23.750010	0.000000	
23.769460	58.000000	
23.788910	51.000000	
23.808360	78.000000	
23.827810	35.000000	
23.847260	5.000000	
23.866710	9.000000	
23.886160	64.000000	
23.905610	66.000000	
23.925060	4.000000	
23.944510	10.000000	
23.963960	6.000000	
23.983410	74.000000	
24.002860	2.000000	
24.022310	1.000000	
24.041760	0.000000	
24.061210	45.000000	
24.080660	4.000000	
24.100110	36.000000	
24.119560	36.000000	
24.139010	78.000000	
24.158460	26.000000	
24.177910	51.000000	
24.197360	33.000000	
24.216810	40.000000	
24.236260	39.000000	
24.255710	19.000000	
24.275160	39.000000	
24.294610	43.000000	
24.314060	36.000000	
24.333520	20.000000	
24.352960	12.000000	
24.372420	38.000000	
24.391860	58.000000	
24.411310	10.000000	
24.430770	0.000000	
24.450210	25.000000	
24.469670	58.000000	
24.489110	54.000000	
24.508570	83.000000	
24.528020	33.000000	
24.547470	30.000000	
24.566920	34.000000	
24.586370	100.000000	
24.605820	19.000000	
24.625270	26.000000	
24.644720	30.000000	
24.664170	73.000000	
24.683620	82.000000	
24.703070	30.000000	
24.722520	44.000000	
24.741970	57.000000	
24.761420	61.000000	
24.780870	32.000000	
24.800320	36.000000	
24.819770	20.000000	
24.839220	72.000000	
24.858670	8.000000	
24.878120	65.000000	
24.897570	56.000000	
24.917020	42.000000	
24.936470	43.000000	
24.955920	21.000000	
24.975370	50.000000	
24.994820	64.000000	
25.014270	59.000000	
25.033720	79.000000	
25.053170	89.000000	
25.072620	77.000000	
25.092070	42.000000	
25.111520	50.000000	
25.130970	65.000000	
25.150420	117.000000	
25.169870	149.000000	
25.189320	184.000000	
25.208770	174.000000	
25.228220	230.000000	
25.247670	235.000000	
25.267120	325.000000	
25.286570	410.000000	
25.306020	543.000000	
25.325470	677.000000	
25.344920	1083.000000	
25.364370	1408.000000	
25.383820	2189.000000	
25.403270	3076.000000	
25.422720	3736.000000	
25.442170	2658.000000	
25.461620	1378.000000	
25.481070	735.000000	
25.500520	437.000000	
25.519970	283.000000	
25.539420	305.000000	
25.558870	237.000000	
25.578320	192.000000	
25.597770	131.000000	
25.617220	132.000000	
25.636670	125.000000	
25.656120	238.000000	
25.675570	180.000000	
25.695020	169.000000	
25.714470	128.000000	
25.733920	140.000000	
25.753370	138.000000	
25.772820	171.000000	
25.792270	210.000000	
25.811720	212.000000	
25.831170	139.000000	
25.850620	209.000000	
25.870070	205.000000	
25.889520	241.000000	
25.908970	297.000000	
25.928420	311.000000	
25.947870	366.000000	
25.967320	388.000000	
25.986770	431.000000	
26.006220	512.000000	
26.025670	510.000000	
26.045120	697.000000	
26.064580	853.000000	
26.084020	1119.000000	
26.103480	1515.000000	
26.122920	1966.000000	
26.142380	2612.000000	
26.161830	3459.000000	
26.181280	4673.000000	
26.200730	6800.000000	
26.220170	10378.000000	
26.239630	16365.000000	
26.259080	22152.000000	
26.278530	20270.000000	
26.297980	12042.000000	
26.317430	5743.000000	
26.336880	3278.000000	
26.356330	1570.000000	
26.375780	805.000000	
26.395230	303.000000	
26.414680	492.000000	
26.434130	614.000000	
26.453580	658.000000	
26.473030	555.000000	
26.492480	369.000000	
26.511930	275.000000	
26.531380	167.000000	
26.550830	233.000000	
26.570280	165.000000	
26.589730	164.000000	
26.609180	173.000000	
26.628630	149.000000	
26.648080	145.000000	
26.667530	21.000000	
26.686980	79.000000	
26.706430	109.000000	
26.725880	92.000000	
26.745330	116.000000	
26.764780	117.000000	
26.784230	92.000000	
26.803680	110.000000	
26.823130	105.000000	
26.842580	53.000000	
26.862030	20.000000	
26.881480	50.000000	
26.900930	145.000000	
26.920380	91.000000	
26.939830	120.000000	
26.959280	26.000000	
26.978730	49.000000	
26.998180	53.000000	
27.017630	101.000000	
27.037080	84.000000	
27.056530	94.000000	
27.075980	11.000000	
27.095430	93.000000	
27.114880	60.000000	
27.134330	102.000000	
27.153780	97.000000	
27.173230	64.000000	
27.192680	70.000000	
27.212130	74.000000	
27.231580	17.000000	
27.251030	78.000000	
27.270480	42.000000	
27.289930	117.000000	
27.309380	8.000000	
27.328830	39.000000	
27.348280	47.000000	
27.367730	42.000000	
27.387180	65.000000	
27.406630	46.000000	
27.426080	50.000000	
27.445530	40.000000	
27.464980	32.000000	
27.484430	58.000000	
27.503880	28.000000	
27.523330	72.000000	
27.542780	91.000000	
27.562230	66.000000	
27.581680	21.000000	
27.601130	18.000000	
27.620580	34.000000	
27.640030	1.000000	
27.659480	83.000000	
27.678930	48.000000	
27.698390	37.000000	
27.717830	23.000000	
27.737280	9.000000	
27.756730	52.000000	
27.776180	47.000000	
27.795640	8.000000	
27.815080	19.000000	
27.834540	9.000000	
27.853980	31.000000	
27.873440	95.000000	
27.892890	52.000000	
27.912340	28.000000	
27.931790	18.000000	
27.951240	3.000000	
27.970690	26.000000	
27.990140	17.000000	
28.009590	40.000000	
28.029040	23.000000	
28.048490	21.000000	
28.067940	38.000000	
28.087390	25.000000	
28.106840	15.000000	
28.126290	5.000000	
28.145740	58.000000	
28.165190	42.000000	
28.184640	26.000000	
28.204090	13.000000	
28.223540	10.000000	
28.242990	11.000000	
28.262440	0.000000	
28.281890	9.000000	
28.301340	31.000000	
28.320790	26.000000	
28.340240	24.000000	
28.359690	6.000000	
28.379140	0.000000	
28.398590	51.000000	
28.418040	32.000000	
28.437490	49.000000	
28.456940	61.000000	
28.476390	32.000000	
28.495840	29.000000	
28.515290	80.000000	
28.534740	0.000000	
28.554190	25.000000	
28.573640	21.000000	
28.593090	17.000000	
28.612540	20.000000	
28.631990	15.000000	
28.651440	0.000000	
28.670890	27.000000	
28.690340	1.000000	
28.709790	0.000000	
28.729240	0.000000	
28.748690	0.000000	
28.768140	0.000000	
28.787590	7.000000	
28.807040	50.000000	
28.826490	0.000000	
28.845940	30.000000	
28.865390	0.000000	
28.884840	17.000000	
28.904290	44.000000	
28.923740	0.000000	
28.943190	0.000000	
28.962640	13.000000	
28.982090	6.000000	
29.001540	0.000000	
29.020990	0.000000	
29.040440	0.000000	
29.059890	24.000000	
29.079340	24.000000	
29.098790	31.000000	
29.118240	24.000000	
29.137690	15.000000	
29.157140	1.000000	
29.176590	0.000000	
29.196040	0.000000	
29.215490	19.000000	
29.234940	12.000000	
29.254390	0.000000	
29.273840	70.000000	
29.293290	29.000000	
29.312740	43.000000	
29.332190	22.000000	
29.351640	0.000000	
29.371090	0.000000	
29.390540	0.000000	
29.409990	10.000000	
29.429450	7.000000	
29.448890	0.000000	
29.468350	30.000000	
29.487790	0.000000	
29.507250	20.000000	
29.526700	68.000000	
29.546140	21.000000	
29.565600	67.000000	
29.585040	32.000000	
29.604500	88.000000	
29.623950	90.000000	
29.643400	29.000000	
29.662850	29.000000	
29.682300	15.000000	
29.701750	34.000000	
29.721200	23.000000	
29.740650	15.000000	
29.760100	25.000000	
29.779550	29.000000	
29.799000	6.000000	
29.818450	26.000000	
29.837900	32.000000	
29.857350	26.000000	
29.876800	56.000000	
29.896250	51.000000	
29.915700	21.000000	
29.935150	0.000000	
29.954600	94.000000	
29.974050	31.000000	
29.993500	26.000000	
30.012950	42.000000	
30.032400	44.000000	
30.051850	63.000000	
30.071300	56.000000	
30.090750	46.000000	
30.110200	21.000000	
30.129650	0.000000	
30.149100	91.000000	
30.168550	101.000000	
30.188000	37.000000	
30.207450	138.000000	
30.226900	80.000000	
30.246350	180.000000	
30.265800	225.000000	
30.285250	184.000000	
30.304700	221.000000	
30.324150	203.000000	
30.343600	313.000000	
30.363050	384.000000	
30.382500	467.000000	
30.401950	723.000000	
30.421400	986.000000	
30.440850	1323.000000	
30.460300	1749.000000	
30.479750	2355.000000	
30.499200	3375.000000	
30.518650	5212.000000	
30.538100	8307.000000	
30.557550	11359.000000	
30.577000	9524.000000	
30.596450	5340.000000	
30.615900	2651.000000	
30.635350	1238.000000	
30.654800	766.000000	
30.674250	549.000000	
30.693700	345.000000	
30.713150	401.000000	
30.732600	320.000000	
30.752050	281.000000	
30.771500	176.000000	
30.790950	103.000000	
30.810400	137.000000	
30.829850	69.000000	
30.849300	106.000000	
30.868750	78.000000	
30.888200	50.000000	
30.907650	89.000000	
30.927100	50.000000	
30.946550	10.000000	
30.966000	43.000000	
30.985450	7.000000	
31.004900	12.000000	
31.024350	28.000000	
31.043800	29.000000	
31.063250	10.000000	
31.082700	86.000000	
31.102150	84.000000	
31.121600	69.000000	
31.141050	39.000000	
31.160510	40.000000	
31.179950	49.000000	
31.199410	50.000000	
31.218850	115.000000	
31.238310	128.000000	
31.257760	111.000000	
31.277210	214.000000	
31.296660	173.000000	
31.316100	235.000000	
31.335560	307.000000	
31.355010	342.000000	
31.374460	580.000000	
31.393910	818.000000	
31.413360	1155.000000	
31.432810	1662.000000	
31.452260	2671.000000	
31.471710	4335.000000	
31.491160	7105.000000	
31.510610	8191.000000	
31.530060	5490.000000	
31.549510	2362.000000	
31.568960	980.000000	
31.588410	672.000000	
31.607860	486.000000	
31.627310	335.000000	
31.646760	181.000000	
31.666210	147.000000	
31.685660	149.000000	
31.705110	75.000000	
31.724560	164.000000	
31.744010	40.000000	
31.763460	107.000000	
31.782910	107.000000	
31.802360	68.000000	
31.821810	45.000000	
31.841260	33.000000	
31.860710	73.000000	
31.880160	40.000000	
31.899610	62.000000	
31.919060	0.000000	
31.938510	0.000000	
31.957960	2.000000	
31.977410	13.000000	
31.996860	19.000000	
32.016310	10.000000	
32.035760	0.000000	
32.055210	47.000000	
32.074660	37.000000	
32.094110	27.000000	
32.113560	41.000000	
32.133010	11.000000	
32.152460	32.000000	
32.171910	69.000000	
32.191360	20.000000	
32.210810	0.000000	
32.230260	20.000000	
32.249710	6.000000	
32.269160	19.000000	
32.288610	64.000000	
32.308060	43.000000	
32.327510	0.000000	
32.346960	15.000000	
32.366410	11.000000	
32.385860	17.000000	
32.405310	61.000000	
32.424760	51.000000	
32.444210	96.000000	
32.463660	79.000000	
32.483110	128.000000	
32.502560	108.000000	
32.522010	195.000000	
32.541460	177.000000	
32.560910	206.000000	
32.580360	250.000000	
32.599810	288.000000	
32.619260	340.000000	
32.638710	435.000000	
32.658160	494.000000	
32.677610	715.000000	
32.697060	839.000000	
32.716510	1142.000000	
32.735970	1610.000000	
32.755410	2295.000000	
32.774860	3369.000000	
32.794320	4583.000000	
32.813770	7176.000000	
32.833210	11347.000000	
32.852660	14422.000000	
32.872120	11431.000000	
32.891560	6075.000000	
32.911010	3444.000000	
32.930470	2113.000000	
32.949920	1479.000000	
32.969360	672.000000	
32.988820	428.000000	
33.008270	214.000000	
33.027720	171.000000	
33.047160	305.000000	
33.066620	301.000000	
33.086070	281.000000	
33.105510	360.000000	
33.124970	179.000000	
33.144420	86.000000	
33.163870	47.000000	
33.183320	5.000000	
33.202770	44.000000	
33.222220	101.000000	
33.241670	78.000000	
33.261120	111.000000	
33.280570	116.000000	
33.300020	54.000000	
33.319470	96.000000	
33.338920	86.000000	
33.358370	119.000000	
33.377820	110.000000	
33.397270	104.000000	
33.416720	165.000000	
33.436170	265.000000	
33.455620	368.000000	
33.475070	551.000000	
33.494520	899.000000	
33.513970	1389.000000	
33.533420	1217.000000	
33.552870	654.000000	
33.572320	436.000000	
33.591770	228.000000	
33.611220	152.000000	
33.630670	128.000000	
33.650120	10.000000	
33.669570	36.000000	
33.689020	16.000000	
33.708470	66.000000	
33.727920	50.000000	
33.747370	20.000000	
33.766820	38.000000	
33.786270	20.000000	
33.805720	63.000000	
33.825170	58.000000	
33.844620	11.000000	
33.864070	75.000000	
33.883520	2.000000	
33.902970	15.000000	
33.922420	35.000000	
33.941870	5.000000	
33.961320	62.000000	
33.980770	63.000000	
34.000220	20.000000	
34.019670	16.000000	
34.039120	31.000000	
34.058570	21.000000	
34.078020	29.000000	
34.097470	70.000000	
34.116920	52.000000	
34.136370	50.000000	
34.155820	37.000000	
34.175270	15.000000	
34.194720	10.000000	
34.214170	5.000000	
34.233620	0.000000	
34.253070	30.000000	
34.272520	42.000000	
34.291970	5.000000	
34.311420	60.000000	
34.330880	38.000000	
34.350320	35.000000	
34.369770	12.000000	
34.389230	43.000000	
34.408670	4.000000	
34.428120	43.000000	
34.447570	0.000000	
34.467030	55.000000	
34.486470	15.000000	
34.505920	35.000000	
34.525380	80.000000	
34.544830	44.000000	
34.564270	4.000000	
34.583720	29.000000	
34.603180	45.000000	
34.622620	20.000000	
34.642070	45.000000	
34.661530	48.000000	
34.680980	26.000000	
34.700420	3.000000	
34.719880	78.000000	
34.739330	42.000000	
34.758780	40.000000	
34.778220	79.000000	
34.797680	6.000000	
34.817130	21.000000	
34.836580	6.000000	
34.856030	18.000000	
34.875480	17.000000	
34.894930	35.000000	
34.914380	55.000000	
34.933830	71.000000	
34.953280	76.000000	
34.972730	51.000000	
34.992180	30.000000	
35.011630	32.000000	
35.031080	29.000000	
35.050530	27.000000	
35.069980	19.000000	
35.089430	83.000000	
35.108880	53.000000	
35.128330	97.000000	
35.147780	29.000000	
35.167230	36.000000	
35.186680	40.000000	
35.206130	18.000000	
35.225580	14.000000	
35.245030	28.000000	
35.264480	27.000000	
35.283930	51.000000	
35.303380	22.000000	
35.322830	61.000000	
35.342280	49.000000	
35.361730	73.000000	
35.381180	43.000000	
35.400630	15.000000	
35.420080	19.000000	
35.439530	37.000000	
35.458980	25.000000	
35.478430	28.000000	
35.497880	55.000000	
35.517330	67.000000	
35.536780	83.000000	
35.556230	84.000000	
35.575680	84.000000	
35.595130	92.000000	
35.614580	31.000000	
35.634030	27.000000	
35.653480	78.000000	
35.672930	97.000000	
35.692380	31.000000	
35.711830	115.000000	
35.731280	109.000000	
35.750730	134.000000	
35.770180	162.000000	
35.789630	226.000000	
35.809080	306.000000	
35.828530	592.000000	
35.847980	871.000000	
35.867430	821.000000	
35.886880	464.000000	
35.906330	231.000000	
35.925780	166.000000	
35.945230	196.000000	
35.964680	274.000000	
35.984130	379.000000	
36.003580	522.000000	
36.023030	871.000000	
36.042480	931.000000	
36.061940	616.000000	
36.081380	301.000000	
36.100830	126.000000	
36.120290	171.000000	
36.139740	82.000000	
36.159180	64.000000	
36.178630	78.000000	
36.198090	87.000000	
36.217530	30.000000	
36.236980	40.000000	
36.256440	70.000000	
36.275890	58.000000	
36.295330	36.000000	
36.314790	98.000000	
36.334240	42.000000	
36.353690	30.000000	
36.373130	77.000000	
36.392590	53.000000	
36.412040	22.000000	
36.431480	31.000000	
36.450940	54.000000	
36.470390	44.000000	
36.489840	30.000000	
36.509280	57.000000	
36.528740	32.000000	
36.548190	17.000000	
36.567640	2.000000	
36.587090	30.000000	
36.606540	16.000000	
36.625990	46.000000	
36.645440	41.000000	
36.664890	41.000000	
36.684340	46.000000	
36.703790	30.000000	
36.723240	19.000000	
36.742690	63.000000	
36.762140	61.000000	
36.781590	39.000000	
36.801040	23.000000	
36.820490	18.000000	
36.839940	58.000000	
36.859390	3.000000	
36.878840	24.000000	
36.898290	33.000000	
36.917740	47.000000	
36.937190	31.000000	
36.956640	33.000000	
36.976090	48.000000	
36.995540	46.000000	
37.014990	49.000000	
37.034440	48.000000	
37.053890	37.000000	
37.073340	24.000000	
37.092790	5.000000	
37.112240	2.000000	
37.131690	33.000000	
37.151140	12.000000	
37.170590	13.000000	
37.190040	25.000000	
37.209490	68.000000	
37.228940	65.000000	
37.248390	46.000000	
37.267840	14.000000	
37.287290	38.000000	
37.306740	16.000000	
37.326190	4.000000	
37.345640	64.000000	
37.365090	41.000000	
37.384540	71.000000	
37.403990	18.000000	
37.423440	85.000000	
37.442890	50.000000	
37.462340	61.000000	
37.481790	15.000000	
37.501240	4.000000	
37.520690	19.000000	
37.540140	53.000000	
37.559590	6.000000	
37.579040	53.000000	
37.598490	87.000000	
37.617940	51.000000	
37.637390	64.000000	
37.656850	84.000000	
37.676290	27.000000	
37.695740	10.000000	
37.715190	33.000000	
37.734640	26.000000	
37.754090	15.000000	
37.773540	37.000000	
37.793000	47.000000	
37.812440	25.000000	
37.831890	50.000000	
37.851350	43.000000	
37.870800	9.000000	
37.890240	28.000000	
37.909690	44.000000	
37.929150	2.000000	
37.948590	1.000000	
37.968040	40.000000	
37.987500	21.000000	
38.006950	4.000000	
38.026390	65.000000	
38.045850	39.000000	
38.065300	35.000000	
38.084750	2.000000	
38.104190	33.000000	
38.123650	54.000000	
38.143100	42.000000	
38.162550	27.000000	
38.182000	24.000000	
38.201450	39.000000	
38.220900	0.000000	
38.240350	0.000000	
38.259800	21.000000	
38.279250	37.000000	
38.298700	28.000000	
38.318150	84.000000	
38.337600	5.000000	
38.357050	14.000000	
38.376500	3.000000	
38.395950	22.000000	
38.415400	9.000000	
38.434850	48.000000	
38.454300	51.000000	
38.473750	81.000000	
38.493200	55.000000	
38.512650	9.000000	
38.532100	2.000000	
38.551550	6.000000	
38.571000	6.000000	
38.590450	0.000000	
38.609900	50.000000	
38.629350	37.000000	
38.648800	33.000000	
38.668250	94.000000	
38.687700	61.000000	
38.707150	65.000000	
38.726600	54.000000	
38.746050	90.000000	
38.765500	23.000000	
38.784950	44.000000	
38.804400	77.000000	
38.823850	110.000000	
38.843300	110.000000	
38.862750	176.000000	
38.882200	190.000000	
38.901650	248.000000	
38.921100	336.000000	
38.940550	527.000000	
38.960000	679.000000	
38.979450	1183.000000	
38.998900	1747.000000	
39.018350	2072.000000	
39.037800	1390.000000	
39.057250	773.000000	
39.076700	392.000000	
39.096150	201.000000	
39.115600	197.000000	
39.135050	152.000000	
39.154500	103.000000	
39.173950	11.000000	
39.193400	103.000000	
39.212850	95.000000	
39.232300	30.000000	
39.251750	50.000000	
39.271200	110.000000	
39.290650	78.000000	
39.310100	1.000000	
39.329550	2.000000	
39.349000	3.000000	
39.368450	37.000000	
39.387910	23.000000	
39.407350	24.000000	
39.426800	45.000000	
39.446250	84.000000	
39.465710	65.000000	
39.485150	13.000000	
39.504600	17.000000	
39.524060	30.000000	
39.543500	22.000000	
39.562950	3.000000	
39.582410	8.000000	
39.601860	16.000000	
39.621300	64.000000	
39.640750	24.000000	
39.660210	27.000000	
39.679660	5.000000	
39.699100	36.000000	
39.718560	32.000000	
39.738010	20.000000	
39.757450	62.000000	
39.776910	13.000000	
39.796360	7.000000	
39.815810	44.000000	
39.835250	0.000000	
39.854710	36.000000	
39.874160	15.000000	
39.893610	68.000000	
39.913060	65.000000	
39.932510	25.000000	
39.951960	24.000000	
39.971410	0.000000	
39.990860	11.000000	
40.010310	43.000000	
40.029760	38.000000	
40.049210	5.000000	
40.068660	47.000000	
40.088110	3.000000	
40.107560	1.000000	
40.127010	59.000000	
40.146460	31.000000	
40.165910	45.000000	
40.185360	52.000000	
40.204810	72.000000	
40.224260	55.000000	
40.243710	32.000000	
40.263160	67.000000	
40.282610	28.000000	
40.302060	29.000000	
40.321510	24.000000	
40.340960	44.000000	
40.360410	48.000000	
40.379860	47.000000	
40.399310	11.000000	
40.418760	51.000000	
40.438210	60.000000	
40.457660	65.000000	
40.477110	11.000000	
40.496560	98.000000	
40.516010	52.000000	
40.535460	8.000000	
40.554910	7.000000	
40.574360	45.000000	
40.593810	75.000000	
40.613260	58.000000	
40.632710	83.000000	
40.652160	87.000000	
40.671610	70.000000	
40.691060	37.000000	
40.710510	46.000000	
40.729960	55.000000	
40.749410	32.000000	
40.768860	57.000000	
40.788310	40.000000	
40.807760	31.000000	
40.827210	20.000000	
40.846660	75.000000	
40.866110	53.000000	
40.885560	77.000000	
40.905010	68.000000	
40.924460	75.000000	
40.943910	92.000000	
40.963360	101.000000	
40.982810	62.000000	
41.002260	117.000000	
41.021710	112.000000	
41.041160	94.000000	
41.060610	106.000000	
41.080060	62.000000	
41.099510	98.000000	
41.118970	151.000000	
41.138410	58.000000	
41.157860	60.000000	
41.177310	60.000000	
41.196770	125.000000	
41.216210	139.000000	
41.235660	137.000000	
41.255120	158.000000	
41.274560	174.000000	
41.294010	163.000000	
41.313470	149.000000	
41.332920	178.000000	
41.352360	166.000000	
41.371810	221.000000	
41.391270	311.000000	
41.410720	319.000000	
41.430160	292.000000	
41.449620	370.000000	
41.469070	425.000000	
41.488520	548.000000	
41.507970	595.000000	
41.527420	820.000000	
41.546870	1236.000000	
41.566310	1988.000000	
41.585770	2829.000000	
41.605220	4310.000000	
41.624670	6470.000000	
41.644120	6350.000000	
41.663570	3328.000000	
41.683020	1682.000000	
41.702470	1276.000000	
41.721920	1154.000000	
41.741370	1838.000000	
41.760820	2529.000000	
41.780270	3517.000000	
41.799720	3771.000000	
41.819170	2189.000000	
41.838620	1340.000000	
41.858070	670.000000	
41.877520	544.000000	
41.896970	542.000000	
41.916420	305.000000	
41.935870	243.000000	
41.955320	216.000000	
41.974770	248.000000	
41.994220	174.000000	
42.013670	195.000000	
42.033120	216.000000	
42.052570	189.000000	
42.072020	148.000000	
42.091470	129.000000	
42.110920	173.000000	
42.130370	106.000000	
42.149820	72.000000	
42.169270	101.000000	
42.188720	117.000000	
42.208170	117.000000	
42.227620	120.000000	
42.247070	131.000000	
42.266520	182.000000	
42.285970	140.000000	
42.305420	117.000000	
42.324870	139.000000	
42.344320	87.000000	
42.363770	161.000000	
42.383220	160.000000	
42.402670	166.000000	
42.422120	177.000000	
42.441570	140.000000	
42.461020	160.000000	
42.480470	144.000000	
42.499920	203.000000	
42.519370	248.000000	
42.538820	273.000000	
42.558270	329.000000	
42.577720	401.000000	
42.597170	545.000000	
42.616620	852.000000	
42.636070	1194.000000	
42.655520	1771.000000	
42.674970	2633.000000	
42.694420	3702.000000	
42.713870	3203.000000	
42.733320	1824.000000	
42.752770	1021.000000	
42.772220	628.000000	
42.791670	490.000000	
42.811120	375.000000	
42.830570	206.000000	
42.850030	235.000000	
42.869470	243.000000	
42.888920	226.000000	
42.908370	205.000000	
42.927830	63.000000	
42.947270	177.000000	
42.966720	117.000000	
42.986180	75.000000	
43.005630	81.000000	
43.025070	78.000000	
43.044530	135.000000	
43.063980	99.000000	
43.083420	131.000000	
43.102870	102.000000	
43.122330	168.000000	
43.141780	134.000000	
43.161220	133.000000	
43.180680	193.000000	
43.200130	183.000000	
43.219580	103.000000	
43.239030	154.000000	
43.258480	176.000000	
43.277930	209.000000	
43.297380	216.000000	
43.316830	347.000000	
43.336280	563.000000	
43.355730	864.000000	
43.375180	1294.000000	
43.394630	2178.000000	
43.414080	2685.000000	
43.433530	2082.000000	
43.452980	1248.000000	
43.472430	602.000000	
43.491880	428.000000	
43.511330	283.000000	
43.530780	143.000000	
43.550230	196.000000	
43.569680	95.000000	
43.589130	129.000000	
43.608580	97.000000	
43.628030	126.000000	
43.647480	123.000000	
43.666930	54.000000	
43.686380	142.000000	
43.705830	20.000000	
43.725280	73.000000	
43.744730	35.000000	
43.764180	13.000000	
43.783630	69.000000	
43.803080	40.000000	
43.822530	75.000000	
43.841980	54.000000	
43.861430	79.000000	
43.880880	62.000000	
43.900330	45.000000	
43.919780	49.000000	
43.939230	22.000000	
43.958680	34.000000	
43.978130	36.000000	
43.997580	7.000000	
44.017030	33.000000	
44.036480	45.000000	
44.055930	60.000000	
44.075380	88.000000	
44.094830	70.000000	
44.114280	47.000000	
44.133730	74.000000	
44.153180	8.000000	
44.172630	36.000000	
44.192080	34.000000	
44.211530	22.000000	
44.230980	19.000000	
44.250430	26.000000	
44.269880	53.000000	
44.289330	56.000000	
44.308780	92.000000	
44.328230	11.000000	
44.347680	13.000000	
44.367130	54.000000	
44.386580	43.000000	
44.406030	59.000000	
44.425480	16.000000	
44.444930	76.000000	
44.464380	66.000000	
44.483830	55.000000	
44.503280	44.000000	
44.522740	31.000000	
44.542180	72.000000	
44.561630	13.000000	
44.581090	0.000000	
44.600530	48.000000	
44.619980	54.000000	
44.639430	27.000000	
44.658890	25.000000	
44.678330	59.000000	
44.697780	39.000000	
44.717240	59.000000	
44.736690	43.000000	
44.756130	73.000000	
44.775590	86.000000	
44.795040	51.000000	
44.814490	42.000000	
44.833930	53.000000	
44.853390	124.000000	
44.872840	127.000000	
44.892280	195.000000	
44.911740	351.000000	
44.931190	515.000000	
44.950640	860.000000	
44.970090	991.000000	
44.989540	591.000000	
45.008990	429.000000	
45.028440	143.000000	
45.047890	167.000000	
45.067340	14.000000	
45.086790	32.000000	
45.106240	88.000000	
45.125690	55.000000	
45.145140	74.000000	
45.164590	56.000000	
45.184040	45.000000	
45.203490	57.000000	
45.222940	47.000000	
45.242390	34.000000	
45.261840	27.000000	
45.281290	10.000000	
45.300740	31.000000	
45.320190	29.000000	
45.339640	0.000000	
45.359090	72.000000	
45.378540	37.000000	
45.397990	57.000000	
45.417440	19.000000	
45.436890	30.000000	
45.456340	21.000000	
45.475790	18.000000	
45.495240	35.000000	
45.514690	10.000000	
45.534140	47.000000	
45.553590	86.000000	
45.573040	55.000000	
45.592490	57.000000	
45.611940	115.000000	
45.631390	118.000000	
45.650840	147.000000	
45.670290	156.000000	
45.689740	173.000000	
45.709190	180.000000	
45.728640	307.000000	
45.748090	481.000000	
45.767540	745.000000	
45.786990	1073.000000	
45.806440	1417.000000	
45.825890	986.000000	
45.845340	376.000000	
45.864790	206.000000	
45.884240	126.000000	
45.903690	98.000000	
45.923140	96.000000	
45.942590	74.000000	
45.962040	9.000000	
45.981490	29.000000	
46.000940	35.000000	
46.020390	47.000000	
46.039840	16.000000	
46.059290	45.000000	
46.078740	88.000000	
46.098190	76.000000	
46.117640	26.000000	
46.137090	23.000000	
46.156540	63.000000	
46.175990	11.000000	
46.195440	0.000000	
46.214890	14.000000	
46.234340	26.000000	
46.253800	2.000000	
46.273240	0.000000	
46.292690	49.000000	
46.312150	75.000000	
46.331600	4.000000	
46.351040	23.000000	
46.370490	59.000000	
46.389950	32.000000	
46.409390	26.000000	
46.428840	18.000000	
46.448300	16.000000	
46.467750	35.000000	
46.487190	10.000000	
46.506650	15.000000	
46.526100	45.000000	
46.545550	40.000000	
46.564990	45.000000	
46.584450	30.000000	
46.603900	12.000000	
46.623340	9.000000	
46.642800	29.000000	
46.662250	33.000000	
46.681700	37.000000	
46.701150	22.000000	
46.720600	25.000000	
46.740050	72.000000	
46.759500	24.000000	
46.778950	52.000000	
46.798400	22.000000	
46.817850	88.000000	
46.837300	116.000000	
46.856750	38.000000	
46.876200	120.000000	
46.895650	190.000000	
46.915100	197.000000	
46.934550	376.000000	
46.954000	417.000000	
46.973450	414.000000	
46.992900	278.000000	
47.012350	121.000000	
47.031800	134.000000	
47.051250	70.000000	
47.070700	34.000000	
47.090150	70.000000	
47.109600	86.000000	
47.129050	83.000000	
47.148500	14.000000	
47.167950	76.000000	
47.187400	98.000000	
47.206850	47.000000	
47.226300	52.000000	
47.245750	97.000000	
47.265200	119.000000	
47.284650	143.000000	
47.304100	154.000000	
47.323550	146.000000	
47.343000	212.000000	
47.362450	356.000000	
47.381900	477.000000	
47.401350	866.000000	
47.420800	1506.000000	
47.440250	2055.000000	
47.459700	1568.000000	
47.479150	795.000000	
47.498600	364.000000	
47.518050	259.000000	
47.537500	168.000000	
47.556950	155.000000	
47.576400	174.000000	
47.595850	94.000000	
47.615300	126.000000	
47.634750	120.000000	
47.654200	102.000000	
47.673650	80.000000	
47.693100	116.000000	
47.712550	120.000000	
47.732000	212.000000	
47.751450	296.000000	
47.770900	398.000000	
47.790350	457.000000	
47.809800	388.000000	
47.829250	186.000000	
47.848710	144.000000	
47.868150	93.000000	
47.887600	91.000000	
47.907050	77.000000	
47.926500	59.000000	
47.945950	47.000000	
47.965400	26.000000	
47.984860	38.000000	
48.004300	80.000000	
48.023750	91.000000	
48.043210	25.000000	
48.062660	34.000000	
48.082100	48.000000	
48.101550	1.000000	
48.121010	0.000000	
48.140460	12.000000	
48.159900	12.000000	
48.179360	0.000000	
48.198810	12.000000	
48.218250	90.000000	
48.237710	24.000000	
48.257160	68.000000	
48.276610	41.000000	
48.296050	53.000000	
48.315510	13.000000	
48.334960	41.000000	
48.354410	37.000000	
48.373860	10.000000	
48.393310	3.000000	
48.412760	44.000000	
48.432210	25.000000	
48.451660	41.000000	
48.471110	23.000000	
48.490560	62.000000	
48.510010	20.000000	
48.529460	68.000000	
48.548910	32.000000	
48.568360	8.000000	
48.587810	3.000000	
48.607260	39.000000	
48.626710	37.000000	
48.646160	17.000000	
48.665610	17.000000	
48.685060	43.000000	
48.704510	60.000000	
48.723960	25.000000	
48.743410	18.000000	
48.762860	49.000000	
48.782310	1.000000	
48.801760	61.000000	
48.821210	11.000000	
48.840660	2.000000	
48.860110	18.000000	
48.879560	34.000000	
48.899010	0.000000	
48.918460	43.000000	
48.937910	24.000000	
48.957360	23.000000	
48.976810	52.000000	
48.996260	25.000000	
49.015710	40.000000	
49.035160	17.000000	
49.054610	25.000000	
49.074060	55.000000	
49.093510	65.000000	
49.112960	54.000000	
49.132410	83.000000	
49.151860	50.000000	
49.171310	80.000000	
49.190760	67.000000	
49.210210	64.000000	
49.229660	90.000000	
49.249110	55.000000	
49.268560	123.000000	
49.288010	108.000000	
49.307460	164.000000	
49.326910	271.000000	
49.346360	453.000000	
49.365810	643.000000	
49.385260	991.000000	
49.404710	979.000000	
49.424160	682.000000	
49.443610	368.000000	
49.463060	214.000000	
49.482510	160.000000	
49.501960	134.000000	
49.521410	114.000000	
49.540860	135.000000	
49.560310	133.000000	
49.579770	103.000000	
49.599210	144.000000	
49.618660	100.000000	
49.638110	115.000000	
49.657570	105.000000	
49.677010	132.000000	
49.696460	158.000000	
49.715920	173.000000	
49.735360	174.000000	
49.754810	253.000000	
49.774270	289.000000	
49.793720	430.000000	
49.813160	715.000000	
49.832610	1122.000000	
49.852070	1981.000000	
49.871520	2707.000000	
49.890960	2219.000000	
49.910420	1275.000000	
49.929870	611.000000	
49.949310	378.000000	
49.968770	297.000000	
49.988220	141.000000	
50.007670	137.000000	
50.027110	145.000000	
50.046570	37.000000	
50.066020	133.000000	
50.085470	112.000000	
50.104920	84.000000	
50.124370	74.000000	
50.143820	31.000000	
50.163270	99.000000	
50.182720	115.000000	
50.202170	77.000000	
50.221620	65.000000	
50.241070	49.000000	
50.260520	50.000000	
50.279970	74.000000	
50.299420	46.000000	
50.318870	18.000000	
50.338320	26.000000	
50.357770	52.000000	
50.377220	22.000000	
50.396670	42.000000	
50.416120	28.000000	
50.435570	31.000000	
50.455020	47.000000	
50.474470	70.000000	
50.493920	52.000000	
50.513370	71.000000	
50.532820	33.000000	
50.552270	91.000000	
50.571720	99.000000	
50.591170	122.000000	
50.610620	129.000000	
50.630070	119.000000	
50.649520	131.000000	
50.668970	108.000000	
50.688420	59.000000	
50.707870	43.000000	
50.727320	55.000000	
50.746770	54.000000	
50.766220	44.000000	
50.785670	57.000000	
50.805120	15.000000	
50.824570	67.000000	
50.844020	45.000000	
50.863470	29.000000	
50.882920	42.000000	
50.902370	19.000000	
50.921820	7.000000	
50.941270	65.000000	
50.960720	15.000000	
50.980170	4.000000	
50.999620	32.000000	
51.019070	14.000000	
51.038520	27.000000	
51.057970	71.000000	
51.077420	43.000000	
51.096870	35.000000	
51.116320	39.000000	
51.135770	23.000000	
51.155220	33.000000	
51.174670	18.000000	
51.194120	12.000000	
51.213570	24.000000	
51.233020	34.000000	
51.252470	27.000000	
51.271920	0.000000	
51.291370	12.000000	
51.310830	40.000000	
51.330270	36.000000	
51.349720	40.000000	
51.369170	38.000000	
51.388630	24.000000	
51.408070	33.000000	
51.427520	60.000000	
51.446980	21.000000	
51.466430	11.000000	
51.485870	31.000000	
51.505330	48.000000	
51.524780	23.000000	
51.544220	54.000000	
51.563670	38.000000	
51.583130	40.000000	
51.602580	33.000000	
51.622020	36.000000	
51.641480	52.000000	
51.660930	15.000000	
51.680380	54.000000	
51.699830	19.000000	
51.719280	2.000000	
51.738730	8.000000	
51.758170	3.000000	
51.777630	12.000000	
51.797080	45.000000	
51.816530	7.000000	
51.835980	32.000000	
51.855430	53.000000	
51.874880	0.000000	
51.894330	16.000000	
51.913780	41.000000	
51.933230	5.000000	
51.952680	4.000000	
51.972130	45.000000	
51.991580	18.000000	
52.011030	58.000000	
52.030480	70.000000	
52.049930	22.000000	
52.069380	33.000000	
52.088830	55.000000	
52.108280	46.000000	
52.127730	34.000000	
52.147180	41.000000	
52.166630	58.000000	
52.186080	97.000000	
52.205530	80.000000	
52.224980	38.000000	
52.244430	24.000000	
52.263880	68.000000	
52.283330	33.000000	
52.302780	77.000000	
52.322230	60.000000	
52.341680	58.000000	
52.361130	15.000000	
52.380580	26.000000	
52.400030	41.000000	
52.419480	68.000000	
52.438930	35.000000	
52.458380	25.000000	
52.477830	34.000000	
52.497280	23.000000	
52.516730	71.000000	
52.536180	37.000000	
52.555630	23.000000	
52.575080	56.000000	
52.594530	63.000000	
52.613980	73.000000	
52.633430	29.000000	
52.652880	44.000000	
52.672330	66.000000	
52.691780	51.000000	
52.711230	8.000000	
52.730680	49.000000	
52.750130	10.000000	
52.769580	26.000000	
52.789030	25.000000	
52.808480	49.000000	
52.827930	58.000000	
52.847380	99.000000	
52.866830	88.000000	
52.886280	68.000000	
52.905740	69.000000	
52.925180	116.000000	
52.944630	66.000000	
52.964080	52.000000	
52.983540	144.000000	
53.002980	102.000000	
53.022430	124.000000	
53.041890	259.000000	
53.061330	421.000000	
53.080780	671.000000	
53.100230	1015.000000	
53.119690	907.000000	
53.139130	562.000000	
53.158580	368.000000	
53.178040	174.000000	
53.197490	103.000000	
53.216930	120.000000	
53.236390	97.000000	
53.255840	81.000000	
53.275280	40.000000	
53.294730	37.000000	
53.314190	45.000000	
53.333640	63.000000	
53.353080	43.000000	
53.372540	56.000000	
53.391990	60.000000	
53.411440	52.000000	
53.430890	89.000000	
53.450340	84.000000	
53.469790	90.000000	
53.489240	41.000000	
53.508690	52.000000	
53.528140	93.000000	
53.547590	95.000000	
53.567040	37.000000	
53.586490	38.000000	
53.605940	26.000000	
53.625390	52.000000	
53.644840	50.000000	
53.664290	109.000000	
53.683740	98.000000	
53.703190	120.000000	
53.722640	140.000000	
53.742090	138.000000	
53.761540	175.000000	
53.780990	149.000000	
53.800440	138.000000	
53.819890	132.000000	
53.839340	118.000000	
53.858790	197.000000	
53.878240	251.000000	
53.897690	362.000000	
53.917140	467.000000	
53.936590	755.000000	
53.956040	1201.000000	
53.975490	2092.000000	
53.994940	2590.000000	
54.014390	2314.000000	
54.033840	1494.000000	
54.053290	919.000000	
54.072740	530.000000	
54.092190	330.000000	
54.111640	191.000000	
54.131090	259.000000	
54.150540	263.000000	
54.169990	191.000000	
54.189440	52.000000	
54.208890	120.000000	
54.228340	139.000000	
54.247790	127.000000	
54.267240	139.000000	
54.286690	64.000000	
54.306140	68.000000	
54.325590	120.000000	
54.345040	112.000000	
54.364490	80.000000	
54.383940	158.000000	
54.403390	144.000000	
54.422840	206.000000	
54.442290	305.000000	
54.461740	280.000000	
54.481190	141.000000	
54.500640	84.000000	
54.520090	100.000000	
54.539540	57.000000	
54.558990	82.000000	
54.578440	70.000000	
54.597890	55.000000	
54.617340	85.000000	
54.636800	84.000000	
54.656240	49.000000	
54.675690	73.000000	
54.695140	79.000000	
54.714600	83.000000	
54.734040	65.000000	
54.753490	31.000000	
54.772950	33.000000	
54.792400	34.000000	
54.811840	11.000000	
54.831300	49.000000	
54.850750	7.000000	
54.870190	42.000000	
54.889640	67.000000	
54.909100	64.000000	
54.928550	52.000000	
54.947990	73.000000	
54.967450	70.000000	
54.986900	29.000000	
55.006350	45.000000	
